HEW  (um) =       3.4889687
FWHM  (um) =       5.6439200
PSF integral =     0.030156417
      -100.00000   5.8145544e-05
      -99.948693   5.9212326e-05
      -99.897385   6.0214384e-05
      -99.846076   6.1149111e-05
      -99.794768   6.2014176e-05
      -99.743460   6.2807138e-05
      -99.692151   6.3526069e-05
      -99.640843   6.4169076e-05
      -99.589535   6.4734505e-05
      -99.538226   6.5220776e-05
      -99.486918   6.5626617e-05
      -99.435609   6.5950874e-05
      -99.384301   6.6192689e-05
      -99.332993   6.6351181e-05
      -99.281684   6.6426119e-05
      -99.230376   6.6417186e-05
      -99.179068   6.6324140e-05
      -99.127759   6.6147318e-05
      -99.076451   6.5886995e-05
      -99.025143   6.5543774e-05
      -98.973834   6.5118531e-05
      -98.922526   6.4611995e-05
      -98.871217   6.4025585e-05
      -98.819909   6.3360776e-05
      -98.768601   6.2619058e-05
      -98.717292   6.1802176e-05
      -98.665984   6.0912274e-05
      -98.614676   5.9951428e-05
      -98.563367   5.8922111e-05
      -98.512059   5.7826891e-05
      -98.460751   5.6668374e-05
      -98.409442   5.5449694e-05
      -98.358134   5.4173593e-05
      -98.306826   5.2843494e-05
      -98.255517   5.1462738e-05
      -98.204209   5.0034702e-05
      -98.152900   4.8563257e-05
      -98.101592   4.7051700e-05
      -98.050284   4.5504472e-05
      -97.998975   4.3924894e-05
      -97.947667   4.2317377e-05
      -97.896359   4.0685810e-05
      -97.845050   3.9034727e-05
      -97.793742   3.7367999e-05
      -97.742434   3.5690005e-05
      -97.691125   3.4005096e-05
      -97.639817   3.2317866e-05
      -97.588508   3.0632277e-05
      -97.537200   2.8953001e-05
      -97.485892   2.7284223e-05
      -97.434583   2.5630365e-05
      -97.383275   2.3995826e-05
      -97.331967   2.2384723e-05
      -97.280658   2.0801441e-05
      -97.229350   1.9249930e-05
      -97.178042   1.7734636e-05
      -97.126733   1.6259309e-05
      -97.075425   1.4827926e-05
      -97.024116   1.3444352e-05
      -96.972808   1.2112266e-05
      -96.921500   1.0835160e-05
      -96.870191   9.6166185e-06
      -96.818883   8.4599190e-06
      -96.767575   7.3682223e-06
      -96.716266   6.3444762e-06
      -96.664958   5.3915765e-06
      -96.613650   4.5121735e-06
      -96.562341   3.7087542e-06
      -96.511033   2.9835893e-06
      -96.459724   2.3388038e-06
      -96.408416   1.7762787e-06
      -96.357108   1.2977276e-06
      -96.305799   9.0464234e-07
      -96.254491   5.9829667e-07
      -96.203183   3.7974117e-07
      -96.151874   2.4983272e-07
      -96.100566   2.0915720e-07
      -96.049258   2.5812199e-07
      -95.997949   3.9688877e-07
      -95.946641   6.2539088e-07
      -95.895332   9.4336285e-07
      -95.844024   1.3502380e-06
      -95.792716   1.8453163e-06
      -95.741407   2.4275771e-06
      -95.690099   3.0959134e-06
      -95.638791   3.8488041e-06
      -95.587482   4.6846669e-06
      -95.536174   5.6016981e-06
      -95.484866   6.5978075e-06
      -95.433557   7.6706922e-06
      -95.382249   8.8179728e-06
      -95.330940   1.0036971e-05
      -95.279632   1.1324829e-05
      -95.228324   1.2678441e-05
      -95.177015   1.4094776e-05
      -95.125707   1.5570379e-05
      -95.074399   1.7101797e-05
      -95.023090   1.8685344e-05
      -94.971782   2.0317097e-05
      -94.920474   2.1993317e-05
      -94.869165   2.3709731e-05
      -94.817857   2.5462409e-05
      -94.766548   2.7246846e-05
      -94.715240   2.9058778e-05
      -94.663932   3.0893912e-05
      -94.612623   3.2747518e-05
      -94.561315   3.4615134e-05
      -94.510007   3.6492120e-05
      -94.458698   3.8373998e-05
      -94.407390   4.0255841e-05
      -94.356082   4.2133091e-05
      -94.304773   4.4001144e-05
      -94.253465   4.5855215e-05
      -94.202156   4.7690884e-05
      -94.150848   4.9503299e-05
      -94.099540   5.1288030e-05
      -94.048231   5.3040570e-05
      -93.996923   5.4756541e-05
      -93.945615   5.6431627e-05
      -93.894306   5.8061526e-05
      -93.842998   5.9642140e-05
      -93.791690   6.1169368e-05
      -93.740381   6.2639558e-05
      -93.689073   6.4048716e-05
      -93.637764   6.5393249e-05
      -93.586456   6.6669871e-05
      -93.535148   6.7875201e-05
      -93.483839   6.9006006e-05
      -93.432531   7.0059815e-05
      -93.381223   7.1033194e-05
      -93.329914   7.1924107e-05
      -93.278606   7.2730139e-05
      -93.227298   7.3449256e-05
      -93.175989   7.4079090e-05
      -93.124681   7.4618346e-05
      -93.073372   7.5065452e-05
      -93.022064   7.5419244e-05
      -92.970756   7.5678741e-05
      -92.919447   7.5843023e-05
      -92.868139   7.5911627e-05
      -92.816831   7.5884406e-05
      -92.765522   7.5761179e-05
      -92.714214   7.5542244e-05
      -92.662906   7.5228017e-05
      -92.611597   7.4818999e-05
      -92.560289   7.4316527e-05
      -92.508980   7.3721504e-05
      -92.457672   7.3035365e-05
      -92.406364   7.2259852e-05
      -92.355055   7.1396662e-05
      -92.303747   7.0448170e-05
      -92.252439   6.9416473e-05
      -92.201130   6.8304263e-05
      -92.149822   6.7114100e-05
      -92.098514   6.5849156e-05
      -92.047205   6.4512400e-05
      -91.995897   6.3107327e-05
      -91.944588   6.1637513e-05
      -91.893280   6.0106326e-05
      -91.841972   5.8517946e-05
      -91.790663   5.6876113e-05
      -91.739355   5.5185321e-05
      -91.688047   5.3449670e-05
      -91.636738   5.1673403e-05
      -91.585430   4.9861388e-05
      -91.534122   4.8018178e-05
      -91.482813   4.6148234e-05
      -91.431505   4.4256543e-05
      -91.380196   4.2348077e-05
      -91.328888   4.0427486e-05
      -91.277580   3.8500042e-05
      -91.226271   3.6570442e-05
      -91.174963   3.4643836e-05
      -91.123655   3.2725193e-05
      -91.072346   3.0819500e-05
      -91.021038   2.8931764e-05
      -90.969730   2.7067007e-05
      -90.918421   2.5230089e-05
      -90.867113   2.3425578e-05
      -90.815804   2.1658713e-05
      -90.764496   1.9933793e-05
      -90.713188   1.8255595e-05
      -90.661879   1.6628533e-05
      -90.610571   1.5056948e-05
      -90.559263   1.3545086e-05
      -90.507954   1.2097026e-05
      -90.456646   1.0716797e-05
      -90.405338   9.4080190e-06
      -90.354029   8.1744175e-06
      -90.302721   7.0193651e-06
      -90.251412   5.9460220e-06
      -90.200104   4.9575060e-06
      -90.148796   4.0565918e-06
      -90.097487   3.2458902e-06
      -90.046179   2.5277906e-06
      -89.994871   1.9044123e-06
      -89.943562   1.3777175e-06
      -89.892254   9.4935109e-07
      -89.840946   6.2072323e-07
      -89.789637   3.9305799e-07
      -89.738329   2.6725112e-07
      -89.687020   2.4398968e-07
      -89.635712   3.2367557e-07
      -89.584404   5.0646374e-07
      -89.533095   7.9224722e-07
      -89.481787   1.1806556e-06
      -89.430479   1.6710552e-06
      -89.379170   2.2625472e-06
      -89.327862   2.9540215e-06
      -89.276554   3.7440360e-06
      -89.225245   4.6309199e-06
      -89.173937   5.6128756e-06
      -89.122628   6.6875343e-06
      -89.071320   7.8527364e-06
      -89.020012   9.1057268e-06
      -88.968703   1.0443653e-05
      -88.917395   1.1863472e-05
      -88.866087   1.3361877e-05
      -88.814778   1.4935382e-05
      -88.763470   1.6580232e-05
      -88.712162   1.8292707e-05
      -88.660853   2.0068554e-05
      -88.609545   2.1903585e-05
      -88.558236   2.3793472e-05
      -88.506928   2.5733662e-05
      -88.455620   2.7719355e-05
      -88.404311   2.9745881e-05
      -88.353003   3.1808166e-05
      -88.301695   3.3901467e-05
      -88.250386   3.6020356e-05
      -88.199078   3.8159706e-05
      -88.147770   4.0314408e-05
      -88.096461   4.2479000e-05
      -88.045153   4.4648278e-05
      -87.993844   4.6816758e-05
      -87.942536   4.8979176e-05
      -87.891228   5.1129991e-05
      -87.839919   5.3264006e-05
      -87.788611   5.5375768e-05
      -87.737303   5.7460186e-05
      -87.685994   5.9511817e-05
      -87.634686   6.1525575e-05
      -87.583378   6.3496443e-05
      -87.532069   6.5419189e-05
      -87.480761   6.7289473e-05
      -87.429452   6.9102144e-05
      -87.378144   7.0852634e-05
      -87.326836   7.2536620e-05
      -87.275527   7.4149763e-05
      -87.224219   7.5687925e-05
      -87.172911   7.7147030e-05
      -87.121602   7.8523460e-05
      -87.070294   7.9813678e-05
      -87.018986   8.1014187e-05
      -86.967677   8.2122064e-05
      -86.916369   8.3134125e-05
      -86.865060   8.4048074e-05
      -86.813752   8.4861191e-05
      -86.762444   8.5571416e-05
      -86.711135   8.6176915e-05
      -86.659827   8.6675765e-05
      -86.608519   8.7066955e-05
      -86.557210   8.7349005e-05
      -86.505902   8.7521269e-05
      -86.454594   8.7583160e-05
      -86.403285   8.7534399e-05
      -86.351977   8.7375014e-05
      -86.300668   8.7105336e-05
      -86.249360   8.6725553e-05
      -86.198052   8.6236890e-05
      -86.146743   8.5640307e-05
      -86.095435   8.4937243e-05
      -86.044127   8.4129384e-05
      -85.992818   8.3218469e-05
      -85.941510   8.2206937e-05
      -85.890202   8.1097174e-05
      -85.838893   7.9891938e-05
      -85.787585   7.8593896e-05
      -85.736277   7.7206784e-05
      -85.684968   7.5733602e-05
      -85.633660   7.4178234e-05
      -85.582351   7.2544314e-05
      -85.531043   7.0836264e-05
      -85.479735   6.9058337e-05
      -85.428426   6.7214757e-05
      -85.377118   6.5310296e-05
      -85.325810   6.3349898e-05
      -85.274501   6.1338427e-05
      -85.223193   5.9281016e-05
      -85.171885   5.7182868e-05
      -85.120576   5.5049452e-05
      -85.069268   5.2886242e-05
      -85.017959   5.0698631e-05
      -84.966651   4.8492422e-05
      -84.915343   4.6273226e-05
      -84.864034   4.4046817e-05
      -84.812726   4.1818909e-05
      -84.761418   3.9595354e-05
      -84.710109   3.7381828e-05
      -84.658801   3.5184242e-05
      -84.607493   3.3008347e-05
      -84.556184   3.0859702e-05
      -84.504876   2.8744107e-05
      -84.453567   2.6667209e-05
      -84.402259   2.4634402e-05
      -84.350951   2.2651081e-05
      -84.299642   2.0722604e-05
      -84.248334   1.8854107e-05
      -84.197026   1.7050545e-05
      -84.145717   1.5316961e-05
      -84.094409   1.3657985e-05
      -84.043101   1.2078083e-05
      -83.991792   1.0581769e-05
      -83.940484   9.1729713e-06
      -83.889175   7.8557928e-06
      -83.837867   6.6338998e-06
      -83.786559   5.5107222e-06
      -83.735250   4.4895663e-06
      -83.683942   3.5733269e-06
      -83.632634   2.7648228e-06
      -83.581325   2.0664920e-06
      -83.530017   1.4805009e-06
      -83.478709   1.0087752e-06
      -83.427400   6.5292584e-07
      -83.376092   4.1430412e-07
      -83.324783   2.9396488e-07
      -83.273475   2.9260948e-07
      -83.222167   4.1071731e-07
      -83.170858   6.4842617e-07
      -83.119550   1.0055547e-06
      -83.068242   1.4816813e-06
      -83.016933   2.0760043e-06
      -82.965625   2.7874856e-06
      -82.914317   3.6147341e-06
      -82.863008   4.5560748e-06
      -82.811700   5.6096339e-06
      -82.760391   6.7731007e-06
      -82.709083   8.0439148e-06
      -82.657775   9.4193331e-06
      -82.606466   1.0896258e-05
      -82.555158   1.2471412e-05
      -82.503850   1.4141108e-05
      -82.452541   1.5901484e-05
      -82.401233   1.7748411e-05
      -82.349925   1.9677795e-05
      -82.298616   2.1684881e-05
      -82.247308   2.3765000e-05
      -82.195999   2.5913235e-05
      -82.144691   2.8124415e-05
      -82.093383   3.0393281e-05
      -82.042074   3.2714418e-05
      -81.990766   3.5082047e-05
      -81.939458   3.7490654e-05
      -81.888149   3.9934237e-05
      -81.836841   4.2406808e-05
      -81.785533   4.4902531e-05
      -81.734224   4.7414985e-05
      -81.682916   4.9938325e-05
      -81.631607   5.2466191e-05
      -81.580299   5.4992354e-05
      -81.528991   5.7510442e-05
      -81.477682   6.0014361e-05
      -81.426374   6.2497721e-05
      -81.375066   6.4954461e-05
      -81.323757   6.7378503e-05
      -81.272449   6.9763543e-05
      -81.221141   7.2103668e-05
      -81.169832   7.4393124e-05
      -81.118524   7.6626088e-05
      -81.067215   7.8796958e-05
      -81.015907   8.0899981e-05
      -80.964599   8.2930044e-05
      -80.913290   8.4881859e-05
      -80.861982   8.6750638e-05
      -80.810674   8.8531269e-05
      -80.759365   9.0219351e-05
      -80.708057   9.1810737e-05
      -80.656749   9.3300829e-05
      -80.605440   9.4686060e-05
      -80.554132   9.5962851e-05
      -80.502823   9.7127803e-05
      -80.451515   9.8177662e-05
      -80.400207   9.9110020e-05
      -80.348898   9.9921938e-05
      -80.297590   0.00010061146
      -80.246282   0.00010117650
      -80.194973   0.00010161571
      -80.143665   0.00010192777
      -80.092357   0.00010211158
      -80.041048   0.00010216667
      -79.989740   0.00010209272
      -79.938431   0.00010188959
      -79.887123   0.00010155782
      -79.835815   0.00010109795
      -79.784506   0.00010051098
      -79.733198   9.9798585e-05
      -79.681890   9.8961899e-05
      -79.630581   9.8003411e-05
      -79.579273   9.6924781e-05
      -79.527965   9.5729097e-05
      -79.476656   9.4419148e-05
      -79.425348   9.2998057e-05
      -79.374039   9.1469455e-05
      -79.322731   8.9836990e-05
      -79.271423   8.8104602e-05
      -79.220114   8.6276857e-05
      -79.168806   8.4358085e-05
      -79.117498   8.2353174e-05
      -79.066189   8.0267274e-05
      -79.014881   7.8105585e-05
      -78.963573   7.5873472e-05
      -78.912264   7.3576700e-05
      -78.860956   7.1220820e-05
      -78.809647   6.8812203e-05
      -78.758339   6.6356909e-05
      -78.707031   6.3861056e-05
      -78.655722   6.1331041e-05
      -78.604414   5.8773643e-05
      -78.553106   5.6195155e-05
      -78.501797   5.3602511e-05
      -78.450489   5.1001944e-05
      -78.399181   4.8400750e-05
      -78.347872   4.5805522e-05
      -78.296564   4.3222877e-05
      -78.245255   4.0659895e-05
      -78.193947   3.8123033e-05
      -78.142639   3.5619004e-05
      -78.091330   3.3154448e-05
      -78.040022   3.0736078e-05
      -77.988714   2.8370107e-05
      -77.937405   2.6062881e-05
      -77.886097   2.3820689e-05
      -77.834789   2.1649520e-05
      -77.783480   1.9555325e-05
      -77.732172   1.7543579e-05
      -77.680863   1.5619987e-05
      -77.629555   1.3789765e-05
      -77.578247   1.2058025e-05
      -77.526938   1.0429599e-05
      -77.475630   8.9090676e-06
      -77.424322   7.5007316e-06
      -77.373013   6.2086541e-06
      -77.321705   5.0366229e-06
      -77.270397   3.9881275e-06
      -77.219088   3.0663182e-06
      -77.167780   2.2740226e-06
      -77.116471   1.6138649e-06
      -77.065163   1.0879825e-06
      -77.013855   6.9829310e-07
      -76.962546   4.4631961e-07
      -76.911238   3.3326240e-07
      -76.859930   3.5996656e-07
      -76.808621   5.2691975e-07
      -76.757313   8.3427710e-07
      -76.706005   1.2818212e-06
      -76.654696   1.8689550e-06
      -76.603388   2.5948039e-06
      -76.552079   3.4580123e-06
      -76.500771   4.4570014e-06
      -76.449463   5.5898256e-06
      -76.398154   6.8541157e-06
      -76.346846   8.2471983e-06
      -76.295538   9.7660452e-06
      -76.244229   1.1407543e-05
      -76.192921   1.3167747e-05
      -76.141613   1.5042901e-05
      -76.090304   1.7028756e-05
      -76.038996   1.9120627e-05
      -75.987687   2.1313898e-05
      -75.936379   2.3603220e-05
      -75.885071   2.5983537e-05
      -75.833762   2.8448976e-05
      -75.782454   3.0993833e-05
      -75.731146   3.3612161e-05
      -75.679837   3.6297514e-05
      -75.628529   3.9043481e-05
      -75.577221   4.1843664e-05
      -75.525912   4.4691183e-05
      -75.474604   4.7579040e-05
      -75.423295   5.0500598e-05
      -75.371987   5.3448160e-05
      -75.320679   5.6414879e-05
      -75.269370   5.9393492e-05
      -75.218062   6.2376693e-05
      -75.166754   6.5356777e-05
      -75.115445   6.8326905e-05
      -75.064137   7.1279286e-05
      -75.012829   7.4206898e-05
      -74.961520   7.7102193e-05
      -74.910212   7.9958194e-05
      -74.858903   8.2767356e-05
      -74.807595   8.5523108e-05
      -74.756287   8.8218247e-05
      -74.704978   9.0845973e-05
      -74.653670   9.3399686e-05
      -74.602362   9.5872948e-05
      -74.551053   9.8259481e-05
      -74.499745   0.00010055324
      -74.448437   0.00010274809
      -74.397128   0.00010483867
      -74.345820   0.00010681956
      -74.294511   0.00010868576
      -74.243203   0.00011043184
      -74.191895   0.00011205383
      -74.140586   0.00011354739
      -74.089278   0.00011490857
      -74.037970   0.00011613370
      -73.986661   0.00011721953
      -73.935353   0.00011816283
      -73.884045   0.00011896167
      -73.832736   0.00011961324
      -73.781428   0.00012011599
      -73.730119   0.00012046843
      -73.678811   0.00012066934
      -73.627503   0.00012071810
      -73.576194   0.00012061427
      -73.524886   0.00012035809
      -73.473578   0.00011994984
      -73.422269   0.00011939026
      -73.370961   0.00011868081
      -73.319653   0.00011782306
      -73.268344   0.00011681875
      -73.217036   0.00011567042
      -73.165728   0.00011438076
      -73.114419   0.00011295295
      -73.063111   0.00011139013
      -73.011802   0.00010969632
      -72.960494   0.00010787596
      -72.909186   0.00010593295
      -72.857877   0.00010387257
      -72.806569   0.00010169963
      -72.755261   9.9419683e-05
      -72.703952   9.7038452e-05
      -72.652644   9.4561864e-05
      -72.601336   9.1996053e-05
      -72.550027   8.9347741e-05
      -72.498719   8.6623581e-05
      -72.447410   8.3830231e-05
      -72.396102   8.0974940e-05
      -72.344794   7.8065217e-05
      -72.293485   7.5108235e-05
      -72.242177   7.2111620e-05
      -72.190869   6.9083247e-05
      -72.139560   6.6030856e-05
      -72.088252   6.2962337e-05
      -72.036944   5.9885637e-05
      -71.985635   5.6808650e-05
      -71.934327   5.3739771e-05
      -71.883018   5.0686640e-05
      -71.831710   4.7657449e-05
      -71.780402   4.4660195e-05
      -71.729093   4.1702811e-05
      -71.677785   3.8792996e-05
      -71.626477   3.5938610e-05
      -71.575168   3.3147433e-05
      -71.523860   3.0426654e-05
      -71.472552   2.7783847e-05
      -71.421243   2.5226135e-05
      -71.369935   2.2760253e-05
      -71.318626   2.0393276e-05
      -71.267318   1.8131599e-05
      -71.216010   1.5981436e-05
      -71.164701   1.3948838e-05
      -71.113393   1.2039557e-05
      -71.062085   1.0259097e-05
      -71.010776   8.6125066e-06
      -70.959468   7.1045255e-06
      -70.908160   5.7397106e-06
      -70.856851   4.5221222e-06
      -70.805543   3.4555858e-06
      -70.754234   2.5434272e-06
      -70.702926   1.7886462e-06
      -70.651618   1.1938972e-06
      -70.600309   7.6135661e-07
      -70.549001   4.9285313e-07
      -70.497693   3.8980226e-07
      -70.446384   4.5317889e-07
      -70.395076   6.8355359e-07
      -70.343768   1.0810745e-06
      -70.292459   1.6454551e-06
      -70.241151   2.3759918e-06
      -70.189842   3.2715960e-06
      -70.138534   4.3307430e-06
      -70.087226   5.5513989e-06
      -70.035917   6.9312556e-06
      -69.984609   8.4674852e-06
      -69.933301   1.0156955e-05
      -69.881992   1.1995992e-05
      -69.830684   1.3980694e-05
      -69.779376   1.6106808e-05
      -69.728067   1.8369342e-05
      -69.676759   2.0763446e-05
      -69.625450   2.3283603e-05
      -69.574142   2.5923942e-05
      -69.522834   2.8678534e-05
      -69.471525   3.1540971e-05
      -69.420217   3.4504498e-05
      -69.368909   3.7562143e-05
      -69.317600   4.0706932e-05
      -69.266292   4.3930963e-05
      -69.214984   4.7226901e-05
      -69.163675   5.0586781e-05
      -69.112367   5.4002406e-05
