HEW  (um) =       2.7914614
FWHM  (um) =       4.5155993
PSF integral =     0.037736407
      -100.00000   5.2257999e-05
      -99.958951   5.2357398e-05
      -99.917900   5.2390795e-05
      -99.876849   5.2357798e-05
      -99.835798   5.2258633e-05
      -99.794747   5.2093412e-05
      -99.753696   5.1862691e-05
      -99.712645   5.1566581e-05
      -99.671594   5.1206333e-05
      -99.630543   5.0782475e-05
      -99.589492   5.0296048e-05
      -99.548442   4.9748038e-05
      -99.507391   4.9140330e-05
      -99.466340   4.8474093e-05
      -99.425289   4.7751029e-05
      -99.384238   4.6972731e-05
      -99.343187   4.6141497e-05
      -99.302136   4.5259122e-05
      -99.261085   4.4328017e-05
      -99.220034   4.3350427e-05
      -99.178983   4.2328631e-05
      -99.137933   4.1265571e-05
      -99.096882   4.0163669e-05
      -99.055831   3.9025827e-05
      -99.014780   3.7854983e-05
      -98.973729   3.6653779e-05
      -98.932678   3.5425674e-05
      -98.891627   3.4173638e-05
      -98.850576   3.2900867e-05
      -98.809525   3.1610591e-05
      -98.768474   3.0306132e-05
      -98.727423   2.8990827e-05
      -98.686373   2.7667971e-05
      -98.645322   2.6341141e-05
      -98.604271   2.5013747e-05
      -98.563220   2.3689078e-05
      -98.522169   2.2370547e-05
      -98.481118   2.1061767e-05
      -98.440067   1.9765883e-05
      -98.399016   1.8486422e-05
      -98.357965   1.7226714e-05
      -98.316914   1.5989908e-05
      -98.275864   1.4779377e-05
      -98.234813   1.3598308e-05
      -98.193762   1.2449722e-05
      -98.152711   1.1336642e-05
      -98.111660   1.0262149e-05
      -98.070609   9.2289051e-06
      -98.029558   8.2397836e-06
      -97.988507   7.2973403e-06
      -97.947456   6.4041817e-06
      -97.906405   5.5626686e-06
      -97.865355   4.7750849e-06
      -97.824304   4.0436458e-06
      -97.783253   3.3702826e-06
      -97.742202   2.7568528e-06
      -97.701151   2.2051304e-06
      -97.660100   1.7166577e-06
      -97.619049   1.2927995e-06
      -97.577998   9.3485184e-07
      -97.536947   6.4388474e-07
      -97.495896   4.2078135e-07
      -97.454845   2.6629891e-07
      -97.413795   1.8100624e-07
      -97.372744   1.6528691e-07
      -97.331693   2.1936467e-07
      -97.290642   3.4327494e-07
      -97.249591   5.3688390e-07
      -97.208540   7.9987030e-07
      -97.167489   1.1317645e-06
      -97.126438   1.5318574e-06
      -97.085387   1.9993434e-06
      -97.044336   2.5332313e-06
      -97.003286   3.1322742e-06
      -96.962235   3.7951599e-06
      -96.921184   4.5203969e-06
      -96.880133   5.3062743e-06
      -96.839082   6.1509473e-06
      -96.798031   7.0525188e-06
      -96.756980   8.0086858e-06
      -96.715929   9.0173896e-06
      -96.674878   1.0076059e-05
      -96.633827   1.1182269e-05
      -96.592777   1.2333161e-05
      -96.551726   1.3526244e-05
      -96.510675   1.4758342e-05
      -96.469624   1.6026606e-05
      -96.428573   1.7327911e-05
      -96.387522   1.8659076e-05
      -96.346471   2.0016807e-05
      -96.305420   2.1397712e-05
      -96.264369   2.2798636e-05
      -96.223318   2.4215910e-05
      -96.182267   2.5645942e-05
      -96.141217   2.7085346e-05
      -96.100166   2.8530522e-05
      -96.059115   2.9977875e-05
      -96.018064   3.1423738e-05
      -95.977013   3.2864640e-05
      -95.935962   3.4296758e-05
      -95.894911   3.5716649e-05
      -95.853860   3.7120753e-05
      -95.812809   3.8505600e-05
      -95.771758   3.9867462e-05
      -95.730708   4.1203127e-05
      -95.689657   4.2509056e-05
      -95.648606   4.3782242e-05
      -95.607555   4.5019254e-05
      -95.566504   4.6216684e-05
      -95.525453   4.7372142e-05
      -95.484402   4.8482064e-05
      -95.443351   4.9543928e-05
      -95.402300   5.0555065e-05
      -95.361249   5.1512671e-05
      -95.320199   5.2414488e-05
      -95.279148   5.3257996e-05
      -95.238097   5.4041207e-05
      -95.197046   5.4761922e-05
      -95.155995   5.5418458e-05
      -95.114944   5.6008866e-05
      -95.073893   5.6531836e-05
      -95.032842   5.6985897e-05
      -94.991791   5.7369692e-05
      -94.950740   5.7682481e-05
      -94.909690   5.7923176e-05
      -94.868639   5.8091098e-05
      -94.827588   5.8185906e-05
      -94.786537   5.8207339e-05
      -94.745486   5.8155043e-05
      -94.704435   5.8029213e-05
      -94.663384   5.7830197e-05
      -94.622333   5.7558337e-05
      -94.581282   5.7214295e-05
      -94.540231   5.6798715e-05
      -94.499180   5.6312914e-05
      -94.458130   5.5757789e-05
      -94.417079   5.5134825e-05
      -94.376028   5.4445520e-05
      -94.334977   5.3691553e-05
      -94.293926   5.2874920e-05
      -94.252875   5.1997451e-05
      -94.211824   5.1061307e-05
      -94.170773   5.0069000e-05
      -94.129722   4.9023205e-05
      -94.088671   4.7926151e-05
      -94.047621   4.6780704e-05
      -94.006570   4.5589789e-05
      -93.965519   4.4356504e-05
      -93.924468   4.3083800e-05
      -93.883417   4.1775062e-05
      -93.842366   4.0433418e-05
      -93.801315   3.9062606e-05
      -93.760264   3.7665738e-05
      -93.719213   3.6246613e-05
      -93.678162   3.4808845e-05
      -93.637112   3.3356003e-05
      -93.596061   3.1891980e-05
      -93.555010   3.0420405e-05
      -93.513959   2.8945156e-05
      -93.472908   2.7469948e-05
      -93.431857   2.5998747e-05
      -93.390806   2.4535133e-05
      -93.349755   2.3083054e-05
      -93.308704   2.1646158e-05
      -93.267653   2.0228391e-05
      -93.226602   1.8833335e-05
      -93.185552   1.7464542e-05
      -93.144501   1.6125756e-05
      -93.103450   1.4820425e-05
      -93.062399   1.3552001e-05
      -93.021348   1.2323833e-05
      -92.980297   1.1139104e-05
      -92.939246   1.0001149e-05
      -92.898195   8.9128192e-06
      -92.857144   7.8771534e-06
      -92.816093   6.8968694e-06
      -92.775043   5.9746487e-06
      -92.733992   5.1129691e-06
      -92.692941   4.3142612e-06
      -92.651890   3.5806850e-06
      -92.610839   2.9143005e-06
      -92.569788   2.3169992e-06
      -92.528737   1.7904231e-06
      -92.487686   1.3361928e-06
      -92.446635   9.5558483e-07
      -92.405584   6.4983485e-07
      -92.364534   4.1986125e-07
      -92.323483   2.6646846e-07
      -92.282432   1.9026508e-07
      -92.241381   1.9164858e-07
      -92.200330   2.7081005e-07
      -92.159279   4.2776153e-07
      -92.118228   6.6231836e-07
      -92.077177   9.7409976e-07
      -92.036126   1.3624986e-06
      -91.995075   1.8267446e-06
      -91.954024   2.3659192e-06
      -91.912974   2.9787927e-06
      -91.871923   3.6640250e-06
      -91.830872   4.4200860e-06
      -91.789821   5.2452265e-06
      -91.748770   6.1375847e-06
      -91.707719   7.0951060e-06
      -91.666668   8.1154772e-06
      -91.625617   9.1963885e-06
      -91.584566   1.0335180e-05
      -91.543515   1.1529199e-05
      -91.502465   1.2775509e-05
      -91.461414   1.4071247e-05
      -91.420363   1.5413133e-05
      -91.379312   1.6798031e-05
      -91.338261   1.8222433e-05
      -91.297210   1.9683129e-05
      -91.256159   2.1176328e-05
      -91.215108   2.2698479e-05
      -91.174057   2.4245689e-05
      -91.133006   2.5814391e-05
      -91.091956   2.7400444e-05
      -91.050905   2.9000189e-05
      -91.009854   3.0609491e-05
      -90.968803   3.2224354e-05
      -90.927752   3.3840873e-05
      -90.886701   3.5454943e-05
      -90.845650   3.7062562e-05
      -90.804599   3.8659683e-05
      -90.763548   4.0242379e-05
      -90.722497   4.1806611e-05
      -90.681446   4.3348492e-05
      -90.640396   4.4864061e-05
      -90.599345   4.6349568e-05
      -90.558294   4.7801342e-05
      -90.517243   4.9215422e-05
      -90.476192   5.0588749e-05
      -90.435141   5.1917310e-05
      -90.394090   5.3197940e-05
      -90.353039   5.4427409e-05
      -90.311988   5.5602506e-05
      -90.270937   5.6720218e-05
      -90.229887   5.7777845e-05
      -90.188836   5.8772418e-05
      -90.147785   5.9701500e-05
      -90.106734   6.0562784e-05
      -90.065683   6.1353832e-05
      -90.024632   6.2072675e-05
      -89.983581   6.2717533e-05
      -89.942530   6.3286635e-05
      -89.901479   6.3778379e-05
      -89.860428   6.4191580e-05
      -89.819378   6.4524996e-05
      -89.778327   6.4777808e-05
      -89.737276   6.4949333e-05
      -89.696225   6.5039125e-05
      -89.655174   6.5046496e-05
      -89.614123   6.4971749e-05
      -89.573072   6.4814966e-05
      -89.532021   6.4576445e-05
      -89.490970   6.4256300e-05
      -89.449919   6.3855949e-05
      -89.408868   6.3375769e-05
      -89.367818   6.2817419e-05
      -89.326767   6.2181905e-05
      -89.285716   6.1470700e-05
      -89.244665   6.0685798e-05
      -89.203614   5.9829009e-05
      -89.162563   5.8902343e-05
      -89.121512   5.7908357e-05
      -89.080461   5.6849375e-05
      -89.039410   5.5728213e-05
      -88.998359   5.4547376e-05
      -88.957309   5.3310011e-05
      -88.916258   5.2019160e-05
      -88.875207   5.0678097e-05
      -88.834156   4.9290404e-05
      -88.793105   4.7859202e-05
      -88.752054   4.6388288e-05
      -88.711003   4.4881823e-05
      -88.669952   4.3342896e-05
      -88.628901   4.1775994e-05
      -88.587850   4.0184913e-05
      -88.546800   3.8573607e-05
      -88.505749   3.6946466e-05
      -88.464698   3.5307544e-05
      -88.423647   3.3660940e-05
      -88.382596   3.2011142e-05
      -88.341545   3.0362189e-05
      -88.300494   2.8718516e-05
      -88.259443   2.7084168e-05
      -88.218392   2.5463658e-05
      -88.177341   2.3861029e-05
      -88.136290   2.2280462e-05
      -88.095240   2.0726126e-05
      -88.054189   1.9202065e-05
      -88.013138   1.7712338e-05
      -87.972087   1.6260808e-05
      -87.931036   1.4851424e-05
      -87.889985   1.3487772e-05
      -87.848934   1.2173570e-05
      -87.807883   1.0912293e-05
      -87.766832   9.7073686e-06
      -87.725781   8.5619470e-06
      -87.684731   7.4791577e-06
      -87.643680   6.4620011e-06
      -87.602629   5.5132031e-06
      -87.561578   4.6355039e-06
      -87.520527   3.8311348e-06
      -87.479476   3.1025332e-06
      -87.438425   2.4516928e-06
      -87.397374   1.8805219e-06
      -87.356323   1.3906583e-06
      -87.315272   9.8361695e-07
      -87.274222   6.6066488e-07
      -87.233171   4.2287336e-07
      -87.192120   2.7106060e-07
      -87.151069   2.0587200e-07
      -87.110018   2.2771767e-07
      -87.068967   3.3678348e-07
      -87.027916   5.3304633e-07
      -86.986865   8.1623741e-07
      -86.945814   1.1859340e-06
      -86.904763   1.6413929e-06
      -86.863712   2.1817014e-06
      -86.822662   2.8057970e-06
      -86.781611   3.5122491e-06
      -86.740560   4.2995824e-06
      -86.699509   5.1660061e-06
      -86.658458   6.1095609e-06
      -86.617407   7.1280618e-06
      -86.576356   8.2191593e-06
      -86.535305   9.3802804e-06
      -86.494254   1.0608787e-05
      -86.453203   1.1901756e-05
      -86.412153   1.3255970e-05
      -86.371102   1.4668305e-05
      -86.330051   1.6135461e-05
      -86.289000   1.7653740e-05
      -86.247949   1.9219567e-05
      -86.206898   2.0829120e-05
      -86.165847   2.2478435e-05
      -86.124796   2.4163568e-05
      -86.083745   2.5880489e-05
      -86.042694   2.7624708e-05
      -86.001644   2.9392177e-05
      -85.960593   3.1178428e-05
      -85.919542   3.2979057e-05
      -85.878491   3.4789646e-05
      -85.837440   3.6605762e-05
      -85.796389   3.8422773e-05
      -85.755338   4.0236326e-05
      -85.714287   4.2041541e-05
      -85.673236   4.3834350e-05
      -85.632185   4.5610031e-05
      -85.591134   4.7364207e-05
      -85.550084   4.9092387e-05
      -85.509033   5.0790311e-05
      -85.467982   5.2453586e-05
      -85.426931   5.4078333e-05
      -85.385880   5.5659872e-05
      -85.344829   5.7194755e-05
      -85.303778   5.8678765e-05
      -85.262727   6.0108235e-05
      -85.221676   6.1479424e-05
      -85.180625   6.2789151e-05
      -85.139575   6.4033689e-05
      -85.098524   6.5209804e-05
      -85.057473   6.6315053e-05
      -85.016422   6.7345763e-05
      -84.975371   6.8299868e-05
      -84.934320   6.9174653e-05
      -84.893269   6.9967842e-05
      -84.852218   7.0677329e-05
      -84.811167   7.1301455e-05
      -84.770116   7.1838401e-05
      -84.729066   7.2286527e-05
      -84.688015   7.2645106e-05
      -84.646964   7.2912771e-05
      -84.605913   7.3088655e-05
      -84.564862   7.3172650e-05
      -84.523811   7.3164020e-05
      -84.482760   7.3062994e-05
      -84.441709   7.2869687e-05
      -84.400658   7.2584413e-05
      -84.359607   7.2207914e-05
      -84.318556   7.1740695e-05
      -84.277506   7.1184327e-05
      -84.236455   7.0540138e-05
      -84.195404   6.9809293e-05
      -84.154353   6.8993942e-05
      -84.113302   6.8095715e-05
      -84.072251   6.7117242e-05
      -84.031200   6.6060546e-05
      -83.990149   6.4928508e-05
      -83.949098   6.3723902e-05
      -83.908047   6.2449618e-05
      -83.866997   6.1109038e-05
      -83.825946   5.9705395e-05
      -83.784895   5.8242090e-05
      -83.743844   5.6723085e-05
      -83.702793   5.5151994e-05
      -83.661742   5.3532905e-05
      -83.620691   5.1869965e-05
      -83.579640   5.0167326e-05
      -83.538589   4.8429350e-05
      -83.497538   4.6660433e-05
      -83.456488   4.4865272e-05
      -83.415437   4.3048140e-05
      -83.374386   4.1213910e-05
      -83.333335   3.9367370e-05
      -83.292284   3.7513017e-05
      -83.251233   3.5655840e-05
      -83.210182   3.3800646e-05
      -83.169131   3.1952078e-05
      -83.128080   3.0115021e-05
      -83.087029   2.8294397e-05
      -83.045979   2.6494795e-05
      -83.004928   2.4720903e-05
      -82.963877   2.2977385e-05
      -82.922826   2.1268859e-05
      -82.881775   1.9599847e-05
      -82.840724   1.7974695e-05
      -82.799673   1.6397688e-05
      -82.758622   1.4873165e-05
      -82.717571   1.3405089e-05
      -82.676520   1.1997286e-05
      -82.635469   1.0653725e-05
      -82.594419   9.3779768e-06
      -82.553368   8.1735243e-06
      -82.512317   7.0436430e-06
      -82.471266   5.9914215e-06
      -82.430215   5.0198434e-06
      -82.389164   4.1315486e-06
      -82.348113   3.3291041e-06
      -82.307062   2.6147951e-06
      -82.266011   1.9907612e-06
      -82.224960   1.4588325e-06
      -82.183910   1.0205970e-06
      -82.142859   6.7751344e-07
      -82.101808   4.3071391e-07
      -82.060757   2.8110994e-07
      -82.019706   2.2938468e-07
      -81.978655   2.7596491e-07
      -81.937604   4.2103002e-07
      -81.896553   6.6449943e-07
      -81.855502   1.0060743e-06
      -81.814451   1.4451520e-06
      -81.773401   1.9809476e-06
      -81.732350   2.6123706e-06
      -81.691299   3.3381218e-06
      -81.650248   4.1566614e-06
      -81.609197   5.0661798e-06
      -81.568146   6.0646362e-06
      -81.527095   7.1498284e-06
      -81.486044   8.3192475e-06
      -81.444993   9.5702299e-06
      -81.403942   1.0899796e-05
      -81.362891   1.2304915e-05
      -81.321841   1.3782182e-05
      -81.280790   1.5328232e-05
      -81.239739   1.6939264e-05
      -81.198688   1.8611533e-05
      -81.157637   2.0340809e-05
      -81.116586   2.2123260e-05
      -81.075535   2.3954168e-05
      -81.034484   2.5829409e-05
      -80.993433   2.7744294e-05
      -80.952382   2.9694176e-05
      -80.911332   3.1674364e-05
      -80.870281   3.3679770e-05
      -80.829230   3.5705773e-05
      -80.788179   3.7747043e-05
      -80.747128   3.9798775e-05
      -80.706077   4.1855855e-05
      -80.665026   4.3913020e-05
      -80.623975   4.5965388e-05
      -80.582924   4.8007706e-05
      -80.541873   5.0034815e-05
      -80.500823   5.2041854e-05
      -80.459772   5.4023598e-05
      -80.418721   5.5975097e-05
      -80.377670   5.7891635e-05
      -80.336619   5.9768218e-05
      -80.295568   6.1600151e-05
      -80.254517   6.3382677e-05
      -80.213466   6.5111471e-05
      -80.172415   6.6782065e-05
      -80.131364   6.8390126e-05
      -80.090313   6.9931706e-05
      -80.049263   7.1402887e-05
      -80.008212   7.2799517e-05
      -79.967161   7.4118652e-05
      -79.926110   7.5356291e-05
      -79.885059   7.6509511e-05
      -79.844008   7.7575306e-05
      -79.802957   7.8550893e-05
      -79.761906   7.9433600e-05
      -79.720855   8.0221488e-05
      -79.679804   8.0911863e-05
      -79.638754   8.1503442e-05
      -79.597703   8.1994062e-05
      -79.556652   8.2382990e-05
      -79.515601   8.2668848e-05
      -79.474550   8.2850764e-05
      -79.433499   8.2928201e-05
      -79.392448   8.2901005e-05
      -79.351397   8.2768930e-05
      -79.310346   8.2532304e-05
      -79.269295   8.2191716e-05
      -79.228245   8.1747495e-05
      -79.187194   8.1201303e-05
      -79.146143   8.0553922e-05
      -79.105092   7.9807088e-05
      -79.064041   7.8962574e-05
      -79.022990   7.8022469e-05
      -78.981939   7.6988961e-05
      -78.940888   7.5864913e-05
      -78.899837   7.4652601e-05
      -78.858786   7.3355269e-05
      -78.817735   7.1976241e-05
      -78.776685   7.0518970e-05
      -78.735634   6.8986792e-05
      -78.694583   6.7383862e-05
      -78.653532   6.5714163e-05
      -78.612481   6.3981813e-05
      -78.571430   6.2191085e-05
      -78.530379   6.0346821e-05
      -78.489328   5.8453440e-05
      -78.448277   5.6515800e-05
      -78.407226   5.4538981e-05
      -78.366176   5.2527885e-05
      -78.325125   5.0487758e-05
      -78.284074   4.8423598e-05
      -78.243023   4.6341105e-05
      -78.201972   4.4245356e-05
      -78.160921   4.2141563e-05
      -78.119870   4.0035575e-05
      -78.078819   3.7932666e-05
      -78.037768   3.5838351e-05
      -77.996717   3.3757997e-05
      -77.955667   3.1696999e-05
      -77.914616   2.9660889e-05
      -77.873565   2.7654726e-05
      -77.832514   2.5684126e-05
      -77.791463   2.3754057e-05
      -77.750412   2.1869652e-05
      -77.709361   2.0035875e-05
      -77.668310   1.8257794e-05
      -77.627259   1.6539797e-05
      -77.586208   1.4886780e-05
      -77.545157   1.3303169e-05
      -77.504107   1.1793143e-05
      -77.463056   1.0360858e-05
      -77.422005   9.0102050e-06
      -77.380954   7.7449046e-06
      -77.339903   6.5684492e-06
      -77.298852   5.4841954e-06
      -77.257801   4.4951875e-06
      -77.216750   3.6041760e-06
      -77.175699   2.8138369e-06
      -77.134648   2.1264631e-06
      -77.093598   1.5441756e-06
      -77.052547   1.0687322e-06
      -77.011496   7.0177280e-07
      -76.970445   4.4450398e-07
      -76.929394   2.9795600e-07
      -76.888343   2.6288280e-07
      -76.847292   3.3969794e-07
      -76.806241   5.2858081e-07
      -76.765190   8.2939320e-07
      -76.724139   1.2417619e-06
      -76.683089   1.7650052e-06
      -76.642038   2.3981182e-06
      -76.600987   3.1398842e-06
      -76.559936   3.9887687e-06
      -76.518885   4.9429592e-06
      -76.477834   6.0003511e-06
      -76.436783   7.1587068e-06
      -76.395732   8.4153169e-06
      -76.354681   9.7673862e-06
      -76.313630   1.1211805e-05
      -76.272579   1.2745164e-05
      -76.231529   1.4364090e-05
      -76.190478   1.6064563e-05
      -76.149427   1.7842683e-05
      -76.108376   1.9694232e-05
      -76.067325   2.1614630e-05
      -76.026274   2.3599561e-05
      -75.985223   2.5644055e-05
      -75.944172   2.7743255e-05
      -75.903121   2.9892022e-05
      -75.862070   3.2085088e-05
      -75.821020   3.4317384e-05
      -75.779969   3.6583069e-05
      -75.738918   3.8876956e-05
      -75.697867   4.1193173e-05
      -75.656816   4.3526201e-05
      -75.615765   4.5870061e-05
      -75.574714   4.8219043e-05
      -75.533663   5.0567502e-05
      -75.492612   5.2909379e-05
      -75.451561   5.5238953e-05
      -75.410511   5.7550236e-05
      -75.369460   5.9837948e-05
      -75.328409   6.2095939e-05
      -75.287358   6.4318446e-05
