HEW  (um) =       2.7914614
FWHM  (um) =       4.5155993
PSF integral =     0.037735341
      -100.00000   5.2273247e-05
      -99.958951   5.2372649e-05
      -99.917900   5.2406128e-05
      -99.876849   5.2373126e-05
      -99.835798   5.2274054e-05
      -99.794747   5.2108835e-05
      -99.753696   5.1878100e-05
      -99.712645   5.1582047e-05
      -99.671594   5.1221634e-05
      -99.630543   5.0797717e-05
      -99.589492   5.0311170e-05
      -99.548442   4.9763289e-05
      -99.507391   4.9155330e-05
      -99.466340   4.8488838e-05
      -99.425289   4.7765662e-05
      -99.384238   4.6987148e-05
      -99.343187   4.6155727e-05
      -99.302136   4.5273242e-05
      -99.261085   4.4341870e-05
      -99.220034   4.3363862e-05
      -99.178983   4.2342062e-05
      -99.137933   4.1278650e-05
      -99.096882   4.0176489e-05
      -99.055831   3.9038410e-05
      -99.014780   3.7867136e-05
      -98.973729   3.6665760e-05
      -98.932678   3.5437320e-05
      -98.891627   3.4184943e-05
      -98.850576   3.2911790e-05
      -98.809525   3.1621114e-05
      -98.768474   3.0316392e-05
      -98.727423   2.9000644e-05
      -98.686373   2.7677603e-05
      -98.645322   2.6350364e-05
      -98.604271   2.5022506e-05
      -98.563220   2.3697436e-05
      -98.522169   2.2378489e-05
      -98.481118   2.1069295e-05
      -98.440067   1.9773118e-05
      -98.399016   1.8493252e-05
      -98.357965   1.7233125e-05
      -98.316914   1.5996057e-05
      -98.275864   1.4785095e-05
      -98.234813   1.3603632e-05
      -98.193762   1.2454749e-05
      -98.152711   1.1341280e-05
      -98.111660   1.0266438e-05
      -98.070609   9.2328225e-06
      -98.029558   8.2433681e-06
      -97.988507   7.3006337e-06
      -97.947456   6.4071706e-06
      -97.906405   5.5653581e-06
      -97.865355   4.7774784e-06
      -97.824304   4.0457380e-06
      -97.783253   3.3720999e-06
      -97.742202   2.7584506e-06
      -97.701151   2.2064691e-06
      -97.660100   1.7177342e-06
      -97.619049   1.2937047e-06
      -97.577998   9.3556505e-07
      -97.536947   6.4440867e-07
      -97.495896   4.2114045e-07
      -97.454845   2.6651702e-07
      -97.413795   1.8109272e-07
      -97.372744   1.6526145e-07
      -97.331693   2.1923641e-07
      -97.290642   3.4306259e-07
      -97.249591   5.3662068e-07
      -97.208540   7.9956936e-07
      -97.167489   1.1314098e-06
      -97.126438   1.5315130e-06
      -97.085387   1.9990316e-06
      -97.044336   2.5329168e-06
      -97.003286   3.1319881e-06
      -96.962235   3.7949360e-06
      -96.921184   4.5202486e-06
      -96.880133   5.3062309e-06
      -96.839082   6.1509944e-06
      -96.798031   7.0526284e-06
      -96.756980   8.0090166e-06
      -96.715929   9.0178351e-06
      -96.674878   1.0076709e-05
      -96.633827   1.1183008e-05
      -96.592777   1.2334150e-05
      -96.551726   1.3527454e-05
      -96.510675   1.4759785e-05
      -96.469624   1.6028278e-05
      -96.428573   1.7329820e-05
      -96.387522   1.8661216e-05
      -96.346471   2.0019287e-05
      -96.305420   2.1400547e-05
      -96.264369   2.2801746e-05
      -96.223318   2.4219163e-05
      -96.182267   2.5649550e-05
      -96.141217   2.7089258e-05
      -96.100166   2.8534797e-05
      -96.059115   2.9982479e-05
      -96.018064   3.1428667e-05
      -95.977013   3.2869791e-05
      -95.935962   3.4302262e-05
      -95.894911   3.5722565e-05
      -95.853860   3.7126928e-05
      -95.812809   3.8512033e-05
      -95.771758   3.9874263e-05
      -95.730708   4.1210248e-05
      -95.689657   4.2516539e-05
      -95.648606   4.3789979e-05
      -95.607555   4.5027335e-05
      -95.566504   4.6225247e-05
      -95.525453   4.7380788e-05
      -95.484402   4.8491092e-05
      -95.443351   4.9553220e-05
      -95.402300   5.0564639e-05
      -95.361249   5.1522412e-05
      -95.320199   5.2424554e-05
      -95.279148   5.3268292e-05
      -95.238097   5.4051751e-05
      -95.197046   5.4772639e-05
      -95.155995   5.5429312e-05
      -95.114944   5.6020006e-05
      -95.073893   5.6543053e-05
      -95.032842   5.6997245e-05
      -94.991791   5.7381336e-05
      -94.950740   5.7694033e-05
      -94.909690   5.7934895e-05
      -94.868639   5.8102986e-05
      -94.827588   5.8197942e-05
      -94.786537   5.8219403e-05
      -94.745486   5.8167165e-05
      -94.704435   5.8041406e-05
      -94.663384   5.7842394e-05
      -94.622333   5.7570527e-05
      -94.581282   5.7226357e-05
      -94.540231   5.6810908e-05
      -94.499180   5.6324972e-05
      -94.458130   5.5769860e-05
      -94.417079   5.5146845e-05
      -94.376028   5.4457407e-05
      -94.334977   5.3703343e-05
      -94.293926   5.2886510e-05
      -94.252875   5.2008937e-05
      -94.211824   5.1072773e-05
      -94.170773   5.0080347e-05
      -94.129722   4.9034126e-05
      -94.088671   4.7936905e-05
      -94.047621   4.6791264e-05
      -94.006570   4.5600099e-05
      -93.965519   4.4366503e-05
      -93.924468   4.3093677e-05
      -93.883417   4.1784603e-05
      -93.842366   4.0442768e-05
      -93.801315   3.9071629e-05
      -93.760264   3.7674489e-05
      -93.719213   3.6255068e-05
      -93.678162   3.4817107e-05
      -93.637112   3.3363945e-05
      -93.596061   3.1899624e-05
      -93.555010   3.0427749e-05
      -93.513959   2.8952168e-05
      -93.472908   2.7476645e-05
      -93.431857   2.6005092e-05
      -93.390806   2.4541097e-05
      -93.349755   2.3088696e-05
      -93.308704   2.1651574e-05
      -93.267653   2.0233520e-05
      -93.226602   1.8838053e-05
      -93.185552   1.7469008e-05
      -93.144501   1.6129912e-05
      -93.103450   1.4824291e-05
      -93.062399   1.3555506e-05
      -93.021348   1.2327068e-05
      -92.980297   1.1142143e-05
      -92.939246   1.0003873e-05
      -92.898195   8.9152549e-06
      -92.857144   7.8793177e-06
      -92.816093   6.8988170e-06
      -92.775043   5.9763126e-06
      -92.733992   5.1144441e-06
      -92.692941   4.3155095e-06
      -92.651890   3.5817448e-06
      -92.610839   2.9151706e-06
      -92.569788   2.3176850e-06
      -92.528737   1.7909442e-06
      -92.487686   1.3365870e-06
      -92.446635   9.5586011e-07
      -92.405584   6.4997573e-07
      -92.364534   4.1991170e-07
      -92.323483   2.6644049e-07
      -92.282432   1.9017931e-07
      -92.241381   1.9150880e-07
      -92.200330   2.7064409e-07
      -92.159279   4.2759708e-07
      -92.118228   6.6215870e-07
      -92.077177   9.7397121e-07
      -92.036126   1.3624060e-06
      -91.995075   1.8267233e-06
      -91.954024   2.3659397e-06
      -91.912974   2.9789033e-06
      -91.871923   3.6642623e-06
      -91.830872   4.4204279e-06
      -91.789821   5.2457298e-06
      -91.748770   6.1382852e-06
      -91.707719   7.0959568e-06
      -91.666668   8.1164930e-06
      -91.625617   9.1976502e-06
      -91.584566   1.0336607e-05
      -91.543515   1.1530873e-05
      -91.502465   1.2777398e-05
      -91.461414   1.4073395e-05
      -91.420363   1.5415572e-05
      -91.379312   1.6800811e-05
      -91.338261   1.8225610e-05
      -91.297210   1.9686542e-05
      -91.256159   2.1179998e-05
      -91.215108   2.2702459e-05
      -91.174057   2.4250075e-05
      -91.133006   2.5819005e-05
      -91.091956   2.7405462e-05
      -91.050905   2.9005563e-05
      -91.009854   3.0615159e-05
      -90.968803   3.2230406e-05
      -90.927752   3.3847335e-05
      -90.886701   3.5461709e-05
      -90.845650   3.7069751e-05
      -90.804599   3.8667187e-05
      -90.763548   4.0250194e-05
      -90.722497   4.1814847e-05
      -90.681446   4.3357067e-05
      -90.640396   4.4873065e-05
      -90.599345   4.6358911e-05
      -90.558294   4.7810935e-05
      -90.517243   4.9225479e-05
      -90.476192   5.0599047e-05
      -90.435141   5.1927804e-05
      -90.394090   5.3208919e-05
      -90.353039   5.4438656e-05
      -90.311988   5.5614098e-05
      -90.270937   5.6732085e-05
      -90.229887   5.7790017e-05
      -90.188836   5.8784707e-05
      -90.147785   5.9714171e-05
      -90.106734   6.0575536e-05
      -90.065683   6.1366938e-05
      -90.024632   6.2086027e-05
      -89.983581   6.2731068e-05
      -89.942530   6.3300326e-05
      -89.901479   6.3792239e-05
      -89.860428   6.4205587e-05
      -89.819378   6.4539054e-05
      -89.778327   6.4792131e-05
      -89.737276   6.4963668e-05
      -89.696225   6.5053460e-05
      -89.655174   6.5060949e-05
      -89.614123   6.4986314e-05
      -89.573072   6.4829474e-05
      -89.532021   6.4590791e-05
      -89.490970   6.4270902e-05
      -89.449919   6.3870344e-05
      -89.408868   6.3390327e-05
      -89.367818   6.2831733e-05
      -89.326767   6.2195939e-05
      -89.285716   6.1484811e-05
      -89.244665   6.0699712e-05
      -89.203614   5.9842832e-05
      -89.162563   5.8916142e-05
      -89.121512   5.7922005e-05
      -89.080461   5.6862644e-05
      -89.039410   5.5741359e-05
      -88.998359   5.4560337e-05
      -88.957309   5.3322633e-05
      -88.916258   5.2031487e-05
      -88.875207   5.0690230e-05
      -88.834156   4.9302166e-05
      -88.793105   4.7870640e-05
      -88.752054   4.6399712e-05
      -88.711003   4.4892727e-05
      -88.669952   4.3353568e-05
      -88.628901   4.1786291e-05
      -88.587850   4.0194823e-05
      -88.546800   3.8583312e-05
      -88.505749   3.6955757e-05
      -88.464698   3.5316504e-05
      -88.423647   3.3669528e-05
      -88.382596   3.2019319e-05
      -88.341545   3.0370000e-05
      -88.300494   2.8725914e-05
      -88.259443   2.7091331e-05
      -88.218392   2.5470309e-05
      -88.177341   2.3867386e-05
      -88.136290   2.2286438e-05
      -88.095240   2.0731685e-05
      -88.054189   1.9207212e-05
      -88.013138   1.7717186e-05
      -87.972087   1.6265403e-05
      -87.931036   1.4855536e-05
      -87.889985   1.3491586e-05
      -87.848934   1.2177107e-05
      -87.807883   1.0915447e-05
      -87.766832   9.7102369e-06
      -87.725781   8.5645044e-06
      -87.684731   7.4814306e-06
      -87.643680   6.4639865e-06
      -87.602629   5.5149537e-06
      -87.561578   4.6369561e-06
      -87.520527   3.8324144e-06
      -87.479476   3.1035759e-06
      -87.438425   2.4525191e-06
      -87.397374   1.8811609e-06
      -87.356323   1.3911381e-06
      -87.315272   9.8396668e-07
      -87.274222   6.6087050e-07
      -87.233171   4.2293973e-07
      -87.192120   2.7103521e-07
      -87.151069   2.0576421e-07
      -87.110018   2.2754393e-07
      -87.068967   3.3656389e-07
      -87.027916   5.3280678e-07
      -86.986865   8.1600713e-07
      -86.945814   1.1856994e-06
      -86.904763   1.6411964e-06
      -86.863712   2.1815844e-06
      -86.822662   2.8057219e-06
      -86.781611   3.5122857e-06
      -86.740560   4.2996930e-06
      -86.699509   5.1662826e-06
      -86.658458   6.1099842e-06
      -86.617407   7.1286490e-06
      -86.576356   8.2199040e-06
      -86.535305   9.3812852e-06
      -86.494254   1.0609987e-05
      -86.453203   1.1903135e-05
      -86.412153   1.3257698e-05
      -86.371102   1.4670263e-05
      -86.330051   1.6137662e-05
      -86.289000   1.7656217e-05
      -86.247949   1.9222378e-05
      -86.206898   2.0832223e-05
      -86.165847   2.2481906e-05
      -86.124796   2.4167483e-05
      -86.083745   2.5884623e-05
      -86.042694   2.7629226e-05
      -86.001644   2.9396938e-05
      -85.960593   3.1183723e-05
      -85.919542   3.2984819e-05
      -85.878491   3.4795661e-05
      -85.837440   3.6612190e-05
      -85.796389   3.8429624e-05
      -85.755338   4.0243505e-05
      -85.714287   4.2049227e-05
      -85.673236   4.3842472e-05
      -85.632185   4.5618440e-05
      -85.591134   4.7373097e-05
      -85.550084   4.9101691e-05
      -85.509033   5.0799901e-05
      -85.467982   5.2463706e-05
      -85.426931   5.4088721e-05
      -85.385880   5.5670725e-05
      -85.344829   5.7205961e-05
      -85.303778   5.8690351e-05
      -85.262727   6.0120063e-05
      -85.221676   6.1491807e-05
      -85.180625   6.2801653e-05
      -85.139575   6.4046605e-05
      -85.098524   6.5223102e-05
      -85.057473   6.6328399e-05
      -85.016422   6.7359585e-05
      -84.975371   6.8313870e-05
      -84.934320   6.9188949e-05
      -84.893269   6.9982438e-05
      -84.852218   7.0692268e-05
      -84.811167   7.1316579e-05
      -84.770116   7.1853687e-05
      -84.729066   7.2302161e-05
      -84.688015   7.2660657e-05
      -84.646964   7.2928443e-05
      -84.605913   7.3104484e-05
      -84.564862   7.3188503e-05
      -84.523811   7.3180075e-05
      -84.482760   7.3079058e-05
      -84.441709   7.2885720e-05
      -84.400658   7.2600533e-05
      -84.359607   7.2223870e-05
      -84.318556   7.1756792e-05
      -84.277506   7.1200315e-05
      -84.236455   7.0556099e-05
      -84.195404   6.9825201e-05
      -84.154353   6.9009597e-05
      -84.113302   6.8111459e-05
      -84.072251   6.7132646e-05
      -84.031200   6.6075738e-05
      -83.990149   6.4943647e-05
      -83.949098   6.3738809e-05
      -83.908047   6.2464315e-05
      -83.866997   6.1123483e-05
      -83.825946   5.9719592e-05
      -83.784895   5.8256060e-05
      -83.743844   5.6736654e-05
      -83.702793   5.5165393e-05
      -83.661742   5.3546002e-05
      -83.620691   5.1882800e-05
      -83.579640   5.0179790e-05
      -83.538589   4.8441440e-05
      -83.497538   4.6672151e-05
      -83.456488   4.4876477e-05
      -83.415437   4.3059146e-05
      -83.374386   4.1224551e-05
      -83.333335   3.9377435e-05
      -83.292284   3.7522798e-05
      -83.251233   3.5665203e-05
      -83.210182   3.3809630e-05
      -83.169131   3.1960621e-05
      -83.128080   3.0123221e-05
      -83.087029   2.8302085e-05
      -83.045979   2.6502067e-05
      -83.004928   2.4727784e-05
      -82.963877   2.2983851e-05
      -82.922826   2.1274976e-05
      -82.881775   1.9605468e-05
      -82.840724   1.7979942e-05
      -82.799673   1.6402580e-05
      -82.758622   1.4877555e-05
      -82.717571   1.3409156e-05
      -82.676520   1.2001047e-05
      -82.635469   1.0657125e-05
      -82.594419   9.3810778e-06
      -82.553368   8.1762334e-06
      -82.512317   7.0459893e-06
      -82.471266   5.9935220e-06
      -82.430215   5.0215904e-06
      -82.389164   4.1330221e-06
      -82.348113   3.3303152e-06
      -82.307062   2.6157800e-06
      -82.266011   1.9914913e-06
      -82.224960   1.4593278e-06
      -82.183910   1.0209120e-06
      -82.142859   6.7764149e-07
      -82.101808   4.3067951e-07
      -82.060757   2.8094216e-07
      -82.019706   2.2910445e-07
      -81.978655   2.7557823e-07
      -81.937604   4.2057385e-07
      -81.896553   6.6398046e-07
      -81.855502   1.0055085e-06
      -81.814451   1.4445876e-06
      -81.773401   1.9803723e-06
      -81.732350   2.6118562e-06
      -81.691299   3.3376404e-06
      -81.650248   4.1562202e-06
      -81.609197   5.0658035e-06
      -81.568146   6.0644413e-06
      -81.527095   7.1497615e-06
      -81.486044   8.3193361e-06
      -81.444993   9.5704357e-06
      -81.403942   1.0900223e-05
      -81.362891   1.2305517e-05
      -81.321841   1.3783121e-05
      -81.280790   1.5329334e-05
      -81.239739   1.6940594e-05
      -81.198688   1.8613126e-05
      -81.157637   2.0342735e-05
      -81.116586   2.2125382e-05
      -81.075535   2.3956777e-05
      -81.034484   2.5832422e-05
      -80.993433   2.7747570e-05
      -80.952382   2.9697864e-05
      -80.911332   3.1678409e-05
      -80.870281   3.3684250e-05
      -80.829230   3.5710593e-05
      -80.788179   3.7752265e-05
      -80.747128   3.9804404e-05
      -80.706077   4.1861765e-05
      -80.665026   4.3919469e-05
      -80.623975   4.5972162e-05
      -80.582924   4.8014939e-05
      -80.541873   5.0042518e-05
      -80.500823   5.2050042e-05
      -80.459772   5.4032184e-05
      -80.418721   5.5984198e-05
      -80.377670   5.7901032e-05
      -80.336619   5.9778054e-05
      -80.295568   6.1610469e-05
      -80.254517   6.3393448e-05
      -80.213466   6.5122517e-05
      -80.172415   6.6793693e-05
      -80.131364   6.8402138e-05
      -80.090313   6.9944106e-05
      -80.049263   7.1415536e-05
      -80.008212   7.2812810e-05
      -79.967161   7.4131950e-05
      -79.926110   7.5370082e-05
      -79.885059   7.6523603e-05
      -79.844008   7.7589744e-05
      -79.802957   7.8565589e-05
      -79.761906   7.9448709e-05
      -79.720855   8.0236703e-05
      -79.679804   8.0927318e-05
      -79.638754   8.1519128e-05
      -79.597703   8.2010229e-05
      -79.556652   8.2399338e-05
      -79.515601   8.2685349e-05
      -79.474550   8.2867379e-05
      -79.433499   8.2945016e-05
      -79.392448   8.2917956e-05
      -79.351397   8.2785903e-05
      -79.310346   8.2549357e-05
      -79.269295   8.2208644e-05
      -79.228245   8.1764666e-05
      -79.187194   8.1218344e-05
      -79.146143   8.0570902e-05
      -79.105092   7.9824067e-05
      -79.064041   7.8979475e-05
      -79.022990   7.8039336e-05
      -78.981939   7.7005865e-05
      -78.940888   7.5881390e-05
      -78.899837   7.4669126e-05
      -78.858786   7.3371613e-05
      -78.817735   7.1992528e-05
      -78.776685   7.0534968e-05
      -78.735634   6.9002687e-05
      -78.694583   6.7399369e-05
      -78.653532   6.5729373e-05
      -78.612481   6.3996783e-05
      -78.571430   6.2205960e-05
      -78.530379   6.0361335e-05
      -78.489328   5.8467561e-05
      -78.448277   5.6529741e-05
      -78.407226   5.4552312e-05
      -78.366176   5.2541037e-05
      -78.325125   5.0500543e-05
      -78.284074   4.8435991e-05
      -78.243023   4.6353093e-05
      -78.201972   4.4256825e-05
      -78.160921   4.2152699e-05
      -78.119870   4.0046398e-05
      -78.078819   3.7943078e-05
      -78.037768   3.5848255e-05
      -77.996717   3.3767393e-05
      -77.955667   3.1706052e-05
      -77.914616   2.9669404e-05
      -77.873565   2.7662883e-05
      -77.832514   2.5691840e-05
      -77.791463   2.3761304e-05
      -77.750412   2.1876465e-05
      -77.709361   2.0042303e-05
      -77.668310   1.8263671e-05
      -77.627259   1.6545410e-05
      -77.586208   1.4891939e-05
      -77.545157   1.3307826e-05
      -77.504107   1.1797502e-05
      -77.463056   1.0364737e-05
      -77.422005   9.0137520e-06
      -77.380954   7.7480545e-06
      -77.339903   6.5712994e-06
      -77.298852   5.4866542e-06
      -77.257801   4.4972461e-06
      -77.216750   3.6059479e-06
      -77.175699   2.8153153e-06
      -77.134648   2.1276671e-06
      -77.093598   1.5450644e-06
      -77.052547   1.0694229e-06
      -77.011496   7.0221314e-07
      -76.970445   4.4471964e-07
      -76.929394   2.9798061e-07
      -76.888343   2.6270975e-07
      -76.847292   3.3936277e-07
      -76.806241   5.2809393e-07
      -76.765190   8.2879283e-07
      -76.724139   1.2410566e-06
      -76.683089   1.7641911e-06
      -76.642038   2.3972602e-06
      -76.600987   3.1389871e-06
      -76.559936   3.9878235e-06
      -76.518885   4.9419983e-06
      -76.477834   5.9994260e-06
      -76.436783   7.1577935e-06
      -76.395732   8.4145296e-06
      -76.354681   9.7666543e-06
      -76.313630   1.1211121e-05
      -76.272579   1.2744698e-05
      -76.231529   1.4363761e-05
      -76.190478   1.6064324e-05
      -76.149427   1.7842661e-05
      -76.108376   1.9694348e-05
      -76.067325   2.1615004e-05
      -76.026274   2.3600097e-05
      -75.985223   2.5644864e-05
      -75.944172   2.7744268e-05
      -75.903121   2.9893398e-05
      -75.862070   3.2086826e-05
      -75.821020   3.4319315e-05
      -75.779969   3.6585382e-05
      -75.738918   3.8879515e-05
      -75.697867   4.1196031e-05
      -75.656816   4.3529383e-05
      -75.615765   4.5873578e-05
      -75.574714   4.8222978e-05
      -75.533663   5.0571754e-05
      -75.492612   5.2914119e-05
      -75.451561   5.5243935e-05
      -75.410511   5.7555694e-05
      -75.369460   5.9843750e-05
      -75.328409   6.2101995e-05
      -75.287358   6.4324957e-05
