HEW  (um) =       1.3954443
FWHM  (um) =       2.2573363
PSF integral =     0.075690800
      -100.00000   1.9014699e-07
      -99.979480   1.2041379e-07
      -99.958959   8.3489569e-08
      -99.938438   7.9523656e-08
      -99.917917   1.0855244e-07
      -99.897395   1.7056733e-07
      -99.876874   2.6541273e-07
      -99.856353   3.9292801e-07
      -99.835832   5.5281976e-07
      -99.815310   7.4472772e-07
      -99.794789   9.6815722e-07
      -99.774268   1.2226383e-06
      -99.753747   1.5075120e-06
      -99.733225   1.8222038e-06
      -99.712704   2.1657994e-06
      -99.692183   2.5376380e-06
      -99.671662   2.9366496e-06
      -99.651140   3.3619452e-06
      -99.630619   3.8124066e-06
      -99.610098   4.2870472e-06
      -99.589577   4.7846538e-06
      -99.569055   5.3039320e-06
      -99.548534   5.8436758e-06
      -99.528013   6.4024925e-06
      -99.507492   6.9789527e-06
      -99.486971   7.5716633e-06
      -99.466449   8.1793104e-06
      -99.445928   8.8000869e-06
      -99.425407   9.4327153e-06
      -99.404886   1.0075422e-05
      -99.384364   1.0726710e-05
      -99.363843   1.1384953e-05
      -99.343322   1.2048262e-05
      -99.322801   1.2715233e-05
      -99.302279   1.3384385e-05
      -99.281758   1.4053504e-05
      -99.261237   1.4721238e-05
      -99.240716   1.5385840e-05
      -99.220194   1.6045620e-05
      -99.199673   1.6698918e-05
      -99.179152   1.7344198e-05
      -99.158631   1.7979786e-05
      -99.138109   1.8603953e-05
      -99.117588   1.9215102e-05
      -99.097067   1.9811873e-05
      -99.076546   2.0392523e-05
      -99.056024   2.0955944e-05
      -99.035503   2.1500291e-05
      -99.014982   2.2024469e-05
      -98.994461   2.2527077e-05
      -98.973940   2.3006754e-05
      -98.953418   2.3462241e-05
      -98.932897   2.3892669e-05
      -98.912376   2.4296708e-05
      -98.891855   2.4673138e-05
      -98.871333   2.5021396e-05
      -98.850812   2.5340324e-05
      -98.830291   2.5629219e-05
      -98.809770   2.5887153e-05
      -98.789248   2.6113742e-05
      -98.768727   2.6308345e-05
      -98.748206   2.6470342e-05
      -98.727685   2.6599243e-05
      -98.707163   2.6695037e-05
      -98.686642   2.6757031e-05
      -98.666121   2.6785187e-05
      -98.645600   2.6779592e-05
      -98.625078   2.6740150e-05
      -98.604557   2.6666793e-05
      -98.584036   2.6560422e-05
      -98.563515   2.6420088e-05
      -98.542993   2.6247132e-05
      -98.522472   2.6041354e-05
      -98.501951   2.5803615e-05
      -98.481430   2.5534505e-05
      -98.460909   2.5234456e-05
      -98.440387   2.4904363e-05
      -98.419866   2.4545263e-05
      -98.399345   2.4157629e-05
      -98.378824   2.3742786e-05
      -98.358302   2.3301572e-05
      -98.337781   2.2834968e-05
      -98.317260   2.2344602e-05
      -98.296739   2.1831575e-05
      -98.276217   2.1296804e-05
      -98.255696   2.0742023e-05
      -98.235175   2.0168648e-05
      -98.214654   1.9577745e-05
      -98.194132   1.8971170e-05
      -98.173611   1.8350331e-05
      -98.153090   1.7717042e-05
      -98.132569   1.7072545e-05
      -98.112047   1.6418557e-05
      -98.091526   1.5756924e-05
      -98.071005   1.5089300e-05
      -98.050484   1.4417271e-05
      -98.029962   1.3742602e-05
      -98.009441   1.3067019e-05
      -97.988920   1.2392305e-05
      -97.968399   1.1720054e-05
      -97.947878   1.1052131e-05
      -97.927356   1.0390076e-05
      -97.906835   9.7356972e-06
      -97.886314   9.0908500e-06
      -97.865793   8.4568902e-06
      -97.845271   7.8357083e-06
      -97.824750   7.2286415e-06
      -97.804229   6.6373787e-06
      -97.783708   6.0635301e-06
      -97.763186   5.5084097e-06
      -97.742665   4.9736521e-06
      -97.722144   4.4605032e-06
      -97.701623   3.9703437e-06
      -97.681101   3.5044731e-06
      -97.660580   3.0640036e-06
      -97.640059   2.6502311e-06
      -97.619538   2.2641634e-06
      -97.599016   1.9068200e-06
      -97.578495   1.5791643e-06
      -97.557974   1.2820804e-06
      -97.537453   1.0163389e-06
      -97.516932   7.8261854e-07
      -97.496410   5.8165217e-07
      -97.475889   4.1389774e-07
      -97.455368   2.7987717e-07
      -97.434847   1.7995623e-07
      -97.414325   1.1441315e-07
      -97.393804   8.3477329e-08
      -97.373283   8.7293611e-08
      -97.352762   1.2585988e-07
      -97.332240   1.9914648e-07
      -97.311719   3.0698385e-07
      -97.291198   4.4916737e-07
      -97.270677   6.2536929e-07
      -97.250155   8.3524569e-07
      -97.229634   1.0781681e-06
      -97.209113   1.3536992e-06
      -97.188592   1.6611278e-06
      -97.168070   1.9996978e-06
      -97.147549   2.3686328e-06
      -97.127028   2.7670602e-06
      -97.106507   3.1939357e-06
      -97.085985   3.6482195e-06
      -97.065464   4.1288164e-06
      -97.044943   4.6346620e-06
      -97.024422   5.1642677e-06
      -97.003901   5.7165167e-06
      -96.983379   6.2900781e-06
      -96.962858   6.8833056e-06
      -96.942337   7.4948569e-06
      -96.921816   8.1233709e-06
      -96.901294   8.7670359e-06
      -96.880773   9.4242603e-06
      -96.860252   1.0093620e-05
      -96.839731   1.0773153e-05
      -96.819209   1.1461510e-05
      -96.798688   1.2156674e-05
      -96.778167   1.2856952e-05
      -96.757646   1.3560716e-05
      -96.737124   1.4266144e-05
      -96.716603   1.4971313e-05
      -96.696082   1.5674644e-05
      -96.675561   1.6374315e-05
      -96.655039   1.7068495e-05
      -96.634518   1.7755551e-05
      -96.613997   1.8433718e-05
      -96.593476   1.9101099e-05
      -96.572954   1.9756155e-05
      -96.552433   2.0397266e-05
      -96.531912   2.1022824e-05
      -96.511391   2.1631394e-05
      -96.490870   2.2221088e-05
      -96.470348   2.2790415e-05
      -96.449827   2.3338198e-05
      -96.429306   2.3862907e-05
      -96.408785   2.4363230e-05
      -96.388263   2.4837919e-05
      -96.367742   2.5285720e-05
      -96.347221   2.5705420e-05
      -96.326700   2.6096020e-05
      -96.306178   2.6456526e-05
      -96.285657   2.6786035e-05
      -96.265136   2.7083620e-05
      -96.244615   2.7348727e-05
      -96.224093   2.7580550e-05
      -96.203572   2.7778179e-05
      -96.183051   2.7941663e-05
      -96.162530   2.8070096e-05
      -96.142008   2.8163279e-05
      -96.121487   2.8221105e-05
      -96.100966   2.8243104e-05
      -96.080445   2.8229755e-05
      -96.059924   2.8180771e-05
      -96.039402   2.8095788e-05
      -96.018881   2.7975829e-05
      -95.998360   2.7820631e-05
      -95.977839   2.7630809e-05
      -95.957317   2.7406771e-05
      -95.936796   2.7149047e-05
      -95.916275   2.6858109e-05
      -95.895754   2.6535138e-05
      -95.875232   2.6180735e-05
      -95.854711   2.5795402e-05
      -95.834190   2.5380535e-05
      -95.813669   2.4937178e-05
      -95.793147   2.4466273e-05
      -95.772626   2.3968999e-05
      -95.752105   2.3446651e-05
      -95.731584   2.2900706e-05
      -95.711062   2.2332402e-05
      -95.690541   2.1743163e-05
      -95.670020   2.1134536e-05
      -95.649499   2.0507831e-05
      -95.628977   1.9864991e-05
      -95.608456   1.9207527e-05
      -95.587935   1.8537108e-05
      -95.567414   1.7855355e-05
      -95.546893   1.7164029e-05
      -95.526371   1.6464772e-05
      -95.505850   1.5759695e-05
      -95.485329   1.5050563e-05
      -95.464808   1.4338666e-05
      -95.444286   1.3626402e-05
      -95.423765   1.2915441e-05
      -95.403244   1.2207464e-05
      -95.382723   1.1504339e-05
      -95.362201   1.0807994e-05
      -95.341680   1.0119983e-05
      -95.321159   9.4423148e-06
      -95.300638   8.7765664e-06
      -95.280116   8.1245677e-06
      -95.259595   7.4879543e-06
      -95.239074   6.8683092e-06
      -95.218553   6.2672737e-06
      -95.198031   5.6864512e-06
      -95.177510   5.1273154e-06
      -95.156989   4.5912900e-06
      -95.136468   4.0797935e-06
      -95.115946   3.5941862e-06
      -95.095425   3.1357021e-06
      -95.074904   2.7055480e-06
      -95.054383   2.3048580e-06
      -95.033862   1.9346847e-06
      -95.013340   1.5960426e-06
      -94.992819   1.2898245e-06
      -94.972298   1.0168020e-06
      -94.951777   7.7774048e-07
      -94.931255   5.7330020e-07
      -94.910734   4.0407122e-07
      -94.890213   2.7046620e-07
      -94.869692   1.7293740e-07
      -94.849170   1.1171386e-07
      -94.828649   8.7044399e-08
      -94.808128   9.9034929e-08
      -94.787607   1.4768353e-07
      -94.767085   2.3292862e-07
      -94.746564   3.5460864e-07
      -94.726043   5.1243567e-07
      -94.705522   7.0609005e-07
      -94.685000   9.3507970e-07
      -94.664479   1.1989497e-06
      -94.643958   1.4970182e-06
      -94.623437   1.8285707e-06
      -94.602916   2.1928314e-06
      -94.582394   2.5889294e-06
      -94.561873   3.0158951e-06
      -94.541352   3.4726958e-06
      -94.520831   3.9581595e-06
      -94.500309   4.4712834e-06
      -94.479788   5.0104998e-06
      -94.459267   5.5747113e-06
      -94.438746   6.1623653e-06
      -94.418224   6.7722295e-06
      -94.397703   7.4026208e-06
      -94.377182   8.0520548e-06
      -94.356661   8.7189180e-06
      -94.336139   9.4015139e-06
      -94.315618   1.0098027e-05
      -94.295097   1.0806848e-05
      -94.274576   1.1526377e-05
      -94.254054   1.2254478e-05
      -94.233533   1.2989447e-05
      -94.213012   1.3729549e-05
      -94.192491   1.4472925e-05
      -94.171969   1.5217588e-05
      -94.151448   1.5961713e-05
      -94.130927   1.6703570e-05
      -94.110406   1.7440921e-05
      -94.089885   1.8172358e-05
      -94.069363   1.8895874e-05
      -94.048842   1.9609346e-05
      -94.028321   2.0311276e-05
      -94.007800   2.0999947e-05
      -93.987278   2.1673477e-05
      -93.966757   2.2330222e-05
      -93.946236   2.2968488e-05
      -93.925715   2.3586437e-05
      -93.905193   2.4183016e-05
      -93.884672   2.4756439e-05
      -93.864151   2.5304999e-05
      -93.843630   2.5827792e-05
      -93.823108   2.6323115e-05
      -93.802587   2.6789737e-05
      -93.782066   2.7226595e-05
      -93.761545   2.7632473e-05
      -93.741023   2.8006487e-05
      -93.720502   2.8347510e-05
      -93.699981   2.8654676e-05
      -93.679460   2.8927142e-05
      -93.658938   2.9164402e-05
      -93.638417   2.9365827e-05
      -93.617896   2.9530739e-05
      -93.597375   2.9658677e-05
      -93.576854   2.9749570e-05
      -93.556332   2.9802977e-05
      -93.535811   2.9818617e-05
      -93.515290   2.9796611e-05
      -93.494769   2.9737123e-05
      -93.474247   2.9639981e-05
      -93.453726   2.9505548e-05
      -93.433205   2.9334249e-05
      -93.412684   2.9126470e-05
      -93.392162   2.8882436e-05
      -93.371641   2.8603201e-05
      -93.351120   2.8289285e-05
      -93.330599   2.7941227e-05
      -93.310077   2.7560160e-05
      -93.289556   2.7147088e-05
      -93.269035   2.6702793e-05
      -93.248514   2.6228662e-05
      -93.227992   2.5725708e-05
      -93.207471   2.5195408e-05
      -93.186950   2.4638617e-05
      -93.166429   2.4057282e-05
      -93.145908   2.3452463e-05
      -93.125386   2.2826080e-05
      -93.104865   2.2179401e-05
      -93.084344   2.1514226e-05
      -93.063823   2.0832358e-05
      -93.043301   2.0135253e-05
      -93.022780   1.9424652e-05
      -93.002259   1.8702707e-05
      -92.981738   1.7970926e-05
      -92.961216   1.7231256e-05
      -92.940695   1.6485814e-05
      -92.920174   1.5736320e-05
      -92.899653   1.4984564e-05
      -92.879131   1.4232681e-05
      -92.858610   1.3482283e-05
      -92.838089   1.2735606e-05
      -92.817568   1.1994579e-05
      -92.797046   1.1260994e-05
      -92.776525   1.0536752e-05
      -92.756004   9.8234545e-06
      -92.735483   9.1234754e-06
      -92.714961   8.4381057e-06
      -92.694440   7.7694371e-06
      -92.673919   7.1190707e-06
      -92.653398   6.4886286e-06
      -92.632877   5.8799237e-06
      -92.612355   5.2943871e-06
      -92.591834   4.7336321e-06
      -92.571313   4.1989634e-06
      -92.550792   3.6920197e-06
      -92.530270   3.2139189e-06
      -92.509749   2.7659339e-06
      -92.489228   2.3494667e-06
      -92.468707   1.9653842e-06
      -92.448185   1.6146955e-06
      -92.427664   1.2984947e-06
      -92.407143   1.0175528e-06
      -92.386622   7.7258672e-07
      -92.366100   5.6435351e-07
      -92.345579   3.9339594e-07
      -92.325058   2.6017016e-07
      -92.304537   1.6508373e-07
      -92.284015   1.0844288e-07
      -92.263494   9.0429000e-08
      -92.242973   1.1114626e-07
      -92.222452   1.7057619e-07
      -92.201930   2.6866321e-07
      -92.181409   4.0513591e-07
      -92.160888   5.7976235e-07
      -92.140367   7.9217002e-07
      -92.119846   1.0417220e-06
      -92.099324   1.3280995e-06
      -92.078803   1.6503959e-06
      -92.058282   2.0078781e-06
      -92.037761   2.3998401e-06
      -92.017239   2.8251368e-06
      -91.996718   3.2828304e-06
      -91.976197   3.7718804e-06
      -91.955676   4.2909389e-06
      -91.935154   4.8388527e-06
      -91.914633   5.4142372e-06
      -91.894112   6.0156759e-06
      -91.873591   6.6416266e-06
      -91.853069   7.2906645e-06
      -91.832548   7.9609907e-06
      -91.812027   8.6512342e-06
      -91.791506   9.3594643e-06
      -91.770984   1.0083849e-05
      -91.750463   1.0822888e-05
      -91.729942   1.1574512e-05
      -91.709421   1.2336796e-05
      -91.688899   1.3107907e-05
      -91.668378   1.3886090e-05
      -91.647857   1.4669007e-05
      -91.627336   1.5455091e-05
      -91.606815   1.6241981e-05
      -91.586293   1.7028192e-05
      -91.565772   1.7811414e-05
      -91.545251   1.8589663e-05
      -91.524730   1.9361068e-05
      -91.504208   2.0123805e-05
      -91.483687   2.0875371e-05
      -91.463166   2.1614833e-05
      -91.442645   2.2339575e-05
      -91.422123   2.3048212e-05
      -91.401602   2.3738478e-05
      -91.381081   2.4408816e-05
      -91.360560   2.5057690e-05
      -91.340038   2.5683512e-05
      -91.319517   2.6284409e-05
      -91.298996   2.6858682e-05
      -91.278475   2.7405672e-05
      -91.257953   2.7923270e-05
      -91.237432   2.8410346e-05
      -91.216911   2.8865601e-05
      -91.196390   2.9287980e-05
      -91.175869   2.9676360e-05
      -91.155347   3.0029752e-05
      -91.134826   3.0347223e-05
      -91.114305   3.0627848e-05
      -91.093784   3.0871319e-05
      -91.073262   3.1076558e-05
      -91.052741   3.1243289e-05
      -91.032220   3.1370597e-05
      -91.011699   3.1458854e-05
      -90.991177   3.1507254e-05
      -90.970656   3.1516036e-05
      -90.950135   3.1484935e-05
      -90.929614   3.1414022e-05
      -90.909092   3.1303467e-05
      -90.888571   3.1153724e-05
      -90.868050   3.0964973e-05
      -90.847529   3.0737686e-05
      -90.827007   3.0472223e-05
      -90.806486   3.0169626e-05
      -90.785965   2.9830667e-05
      -90.765444   2.9455803e-05
      -90.744922   2.9046285e-05
      -90.724401   2.8602802e-05
      -90.703880   2.8127113e-05
      -90.683359   2.7619628e-05
      -90.662838   2.7082005e-05
      -90.642316   2.6515776e-05
      -90.621795   2.5921936e-05
      -90.601274   2.5302442e-05
      -90.580753   2.4658612e-05
      -90.560231   2.3991995e-05
      -90.539710   2.3304477e-05
      -90.519189   2.2597660e-05
      -90.498668   2.1873321e-05
      -90.478146   2.1133419e-05
      -90.457625   2.0379908e-05
      -90.437104   1.9614352e-05
      -90.416583   1.8839192e-05
      -90.396061   1.8055882e-05
      -90.375540   1.7266810e-05
      -90.355019   1.6473789e-05
      -90.334498   1.5678942e-05
      -90.313976   1.4884242e-05
      -90.293455   1.4091749e-05
      -90.272934   1.3303407e-05
      -90.252413   1.2521532e-05
      -90.231891   1.1747742e-05
      -90.211370   1.0984281e-05
      -90.190849   1.0232977e-05
      -90.170328   9.4958170e-06
      -90.149807   8.7749000e-06
      -90.129285   8.0715757e-06
      -90.108764   7.3882686e-06
      -90.088243   6.7262996e-06
      -90.067722   6.0875571e-06
      -90.047200   5.4737713e-06
      -90.026679   4.8863833e-06
      -90.006158   4.3270131e-06
      -89.985637   3.7970750e-06
      -89.965115   3.2980750e-06
      -89.944594   2.8311916e-06
      -89.924073   2.3976808e-06
      -89.903552   1.9987510e-06
      -89.883030   1.6354385e-06
      -89.862509   1.3086797e-06
      -89.841988   1.0193971e-06
      -89.821467   7.6835388e-07
      -89.800945   5.5625627e-07
      -89.780424   3.8370385e-07
      -89.759903   2.5115182e-07
      -89.739382   1.5901328e-07
      -89.718861   1.0759415e-07
      -89.698339   9.7059059e-08
      -89.677818   1.2749168e-07
      -89.657297   1.9886993e-07
      -89.636776   3.1109203e-07
      -89.616254   4.6389679e-07
      -89.595733   6.5698794e-07
      -89.575212   8.8992480e-07
      -89.554691   1.1621122e-06
      -89.534169   1.4729951e-06
      -89.513648   1.8217939e-06
      -89.493127   2.2076669e-06
      -89.472606   2.6297511e-06
      -89.452084   3.0870087e-06
      -89.431563   3.5783009e-06
      -89.411042   4.1024402e-06
      -89.390521   4.6581317e-06
      -89.369999   5.2441013e-06
      -89.349478   5.8586894e-06
      -89.328957   6.5006978e-06
      -89.308436   7.1682548e-06
      -89.287914   7.8599228e-06
      -89.267393   8.5738194e-06
      -89.246872   9.3083997e-06
      -89.226351   1.0061534e-05
      -89.205830   1.0831575e-05
      -89.185308   1.1616669e-05
      -89.164787   1.2414587e-05
      -89.144266   1.3223466e-05
      -89.123745   1.4041483e-05
      -89.103223   1.4866247e-05
      -89.082702   1.5695737e-05
      -89.062181   1.6528252e-05
      -89.041660   1.7361347e-05
      -89.021138   1.8192950e-05
      -89.000617   1.9021127e-05
      -88.980096   1.9843717e-05
      -88.959575   2.0658588e-05
      -88.939053   2.1463876e-05
      -88.918532   2.2257258e-05
      -88.898011   2.3036829e-05
      -88.877490   2.3800779e-05
      -88.856968   2.4547019e-05
      -88.836447   2.5273884e-05
      -88.815926   2.5979135e-05
      -88.795405   2.6661469e-05
      -88.774883   2.7318626e-05
      -88.754362   2.7949311e-05
      -88.733841   2.8552030e-05
      -88.713320   2.9124803e-05
      -88.692799   2.9666373e-05
      -88.672277   3.0175560e-05
      -88.651756   3.0650677e-05
      -88.631235   3.1090964e-05
      -88.610714   3.1494824e-05
      -88.590192   3.1861538e-05
      -88.569671   3.2190117e-05
      -88.549150   3.2479662e-05
      -88.528629   3.2729173e-05
      -88.508107   3.2938491e-05
      -88.487586   3.3106765e-05
      -88.467065   3.3233569e-05
      -88.446544   3.3318684e-05
      -88.426022   3.3361577e-05
      -88.405501   3.3362620e-05
      -88.384980   3.3321448e-05
      -88.364459   3.3238213e-05
      -88.343937   3.3112847e-05
      -88.323416   3.2946203e-05
      -88.302895   3.2738199e-05
      -88.282374   3.2489644e-05
      -88.261853   3.2201046e-05
      -88.241331   3.1872976e-05
      -88.220810   3.1506322e-05
      -88.200289   3.1102169e-05
      -88.179768   3.0661420e-05
      -88.159246   3.0185243e-05
      -88.138725   2.9674685e-05
      -88.118204   2.9131165e-05
      -88.097683   2.8555832e-05
      -88.077161   2.7950435e-05
      -88.056640   2.7316368e-05
      -88.036119   2.6654998e-05
      -88.015598   2.5968548e-05
      -87.995076   2.5258236e-05
      -87.974555   2.4526049e-05
      -87.954034   2.3773827e-05
      -87.933513   2.3003668e-05
      -87.912991   2.2217140e-05
      -87.892470   2.1416609e-05
      -87.871949   2.0604055e-05
      -87.851428   1.9781195e-05
      -87.830906   1.8950393e-05
      -87.810385   1.8113964e-05
      -87.789864   1.7273800e-05
      -87.769343   1.6431929e-05
      -87.748822   1.5590697e-05
      -87.728300   1.4752396e-05
      -87.707779   1.3918743e-05
      -87.687258   1.3092313e-05
      -87.666737   1.2274997e-05
      -87.646215   1.1468998e-05
