HEW  (um) =       3.4889687
FWHM  (um) =       5.6439200
PSF integral =     0.030156886
      -100.00000   5.8143763e-05
      -99.948693   5.9210572e-05
      -99.897385   6.0212623e-05
      -99.846076   6.1147459e-05
      -99.794768   6.2012414e-05
      -99.743460   6.2805514e-05
      -99.692151   6.3524636e-05
      -99.640843   6.4167543e-05
      -99.589535   6.4733060e-05
      -99.538226   6.5219386e-05
      -99.486918   6.5625267e-05
      -99.435609   6.5949646e-05
      -99.384301   6.6191336e-05
      -99.332993   6.6349998e-05
      -99.281684   6.6425085e-05
      -99.230376   6.6416181e-05
      -99.179068   6.6323256e-05
      -99.127759   6.6146552e-05
      -99.076451   6.5886347e-05
      -99.025143   6.5542959e-05
      -98.973834   6.5117771e-05
      -98.922526   6.4611454e-05
      -98.871217   6.4025167e-05
      -98.819909   6.3360345e-05
      -98.768601   6.2618615e-05
      -98.717292   6.1801833e-05
      -98.665984   6.0911931e-05
      -98.614676   5.9951157e-05
      -98.563367   5.8921957e-05
      -98.512059   5.7826668e-05
      -98.460751   5.6668361e-05
      -98.409442   5.5449811e-05
      -98.358134   5.4173704e-05
      -98.306826   5.2843552e-05
      -98.255517   5.1462998e-05
      -98.204209   5.0035041e-05
      -98.152900   4.8563348e-05
      -98.101592   4.7052162e-05
      -98.050284   4.5504756e-05
      -97.998975   4.3925260e-05
      -97.947667   4.2317851e-05
      -97.896359   4.0686337e-05
      -97.845050   3.9035168e-05
      -97.793742   3.7368416e-05
      -97.742434   3.5690615e-05
      -97.691125   3.4005795e-05
      -97.639817   3.2318532e-05
      -97.588508   3.0632900e-05
      -97.537200   2.8953592e-05
      -97.485892   2.7284895e-05
      -97.434583   2.5631019e-05
      -97.383275   2.3996452e-05
      -97.331967   2.2385423e-05
      -97.280658   2.0802056e-05
      -97.229350   1.9250629e-05
      -97.178042   1.7735257e-05
      -97.126733   1.6259975e-05
      -97.075425   1.4828562e-05
      -97.024116   1.3444923e-05
      -96.972808   1.2112777e-05
      -96.921500   1.0835714e-05
      -96.870191   9.6171792e-06
      -96.818883   8.4604741e-06
      -96.767575   7.3686830e-06
      -96.716266   6.3449268e-06
      -96.664958   5.3920166e-06
      -96.613650   4.5125820e-06
      -96.562341   3.7090984e-06
      -96.511033   2.9839214e-06
      -96.459724   2.3390757e-06
      -96.408416   1.7765014e-06
      -96.357108   1.2979391e-06
      -96.305799   9.0480603e-07
      -96.254491   5.9841754e-07
      -96.203183   3.7982222e-07
      -96.151874   2.4985400e-07
      -96.100566   2.0913747e-07
      -96.049258   2.5806642e-07
      -95.997949   3.9678406e-07
      -95.946641   6.2524681e-07
      -95.895332   9.4316082e-07
      -95.844024   1.3500019e-06
      -95.792716   1.8450211e-06
      -95.741407   2.4272564e-06
      -95.690099   3.0955150e-06
      -95.638791   3.8483756e-06
      -95.587482   4.6842041e-06
      -95.536174   5.6012560e-06
      -95.484866   6.5972753e-06
      -95.433557   7.6701398e-06
      -95.382249   8.8173501e-06
      -95.330940   1.0036322e-05
      -95.279632   1.1324135e-05
      -95.228324   1.2677773e-05
      -95.177015   1.4094131e-05
      -95.125707   1.5569671e-05
      -95.074399   1.7101011e-05
      -95.023090   1.8684581e-05
      -94.971782   2.0316346e-05
      -94.920474   2.1992489e-05
      -94.869165   2.3708943e-05
      -94.817857   2.5461470e-05
      -94.766548   2.7245969e-05
      -94.715240   2.9057974e-05
      -94.663932   3.0893038e-05
      -94.612623   3.2746695e-05
      -94.561315   3.4614269e-05
      -94.510007   3.6491268e-05
      -94.458698   3.8373090e-05
      -94.407390   4.0254998e-05
      -94.356082   4.2132347e-05
      -94.304773   4.4000421e-05
      -94.253465   4.5854423e-05
      -94.202156   4.7690113e-05
      -94.150848   4.9502623e-05
      -94.099540   5.1287321e-05
      -94.048231   5.3039926e-05
      -93.996923   5.4755970e-05
      -93.945615   5.6431001e-05
      -93.894306   5.8061082e-05
      -93.842998   5.9641642e-05
      -93.791690   6.1169070e-05
      -93.740381   6.2639179e-05
      -93.689073   6.4048423e-05
      -93.637764   6.5393073e-05
      -93.586456   6.6669629e-05
      -93.535148   6.7875118e-05
      -93.483839   6.9006064e-05
      -93.432531   7.0059756e-05
      -93.381223   7.1033263e-05
      -93.329914   7.1924252e-05
      -93.278606   7.2730309e-05
      -93.227298   7.3449310e-05
      -93.175989   7.4079407e-05
      -93.124681   7.4618551e-05
      -93.073372   7.5065941e-05
      -93.022064   7.5419831e-05
      -92.970756   7.5679212e-05
      -92.919447   7.5843649e-05
      -92.868139   7.5912340e-05
      -92.816831   7.5885022e-05
      -92.765522   7.5761916e-05
      -92.714214   7.5543065e-05
      -92.662906   7.5228916e-05
      -92.611597   7.4820123e-05
      -92.560289   7.4317649e-05
      -92.508980   7.3722612e-05
      -92.457672   7.3036565e-05
      -92.406364   7.2260948e-05
      -92.355055   7.1397989e-05
      -92.303747   7.0449564e-05
      -92.252439   6.9417884e-05
      -92.201130   6.8305753e-05
      -92.149822   6.7115630e-05
      -92.098514   6.5850607e-05
      -92.047205   6.4513973e-05
      -91.995897   6.3108949e-05
      -91.944588   6.1639028e-05
      -91.893280   6.0107908e-05
      -91.841972   5.8519526e-05
      -91.790663   5.6877786e-05
      -91.739355   5.5187037e-05
      -91.688047   5.3451309e-05
      -91.636738   5.1675154e-05
      -91.585430   4.9863164e-05
      -91.534122   4.8019848e-05
      -91.482813   4.6150003e-05
      -91.431505   4.4258321e-05
      -91.380196   4.2349789e-05
      -91.328888   4.0429255e-05
      -91.277580   3.8501708e-05
      -91.226271   3.6572177e-05
      -91.174963   3.4645463e-05
      -91.123655   3.2726855e-05
      -91.072346   3.0821136e-05
      -91.021038   2.8933405e-05
      -90.969730   2.7068555e-05
      -90.918421   2.5231535e-05
      -90.867113   2.3427093e-05
      -90.815804   2.1660151e-05
      -90.764496   1.9935162e-05
      -90.713188   1.8256898e-05
      -90.661879   1.6629781e-05
      -90.610571   1.5058112e-05
      -90.559263   1.3546199e-05
      -90.507954   1.2098148e-05
      -90.456646   1.0717739e-05
      -90.405338   9.4089597e-06
      -90.354029   8.1752823e-06
      -90.302721   7.0201407e-06
      -90.251412   5.9467545e-06
      -90.200104   4.9581323e-06
      -90.148796   4.0571424e-06
      -90.097487   3.2463639e-06
      -90.046179   2.5281878e-06
      -89.994871   1.9047453e-06
      -89.943562   1.3779594e-06
      -89.892254   9.4949071e-07
      -89.840946   6.2079841e-07
      -89.789637   3.9303479e-07
      -89.738329   2.6714786e-07
      -89.687020   2.4379334e-07
      -89.635712   3.2339817e-07
      -89.584404   5.0610711e-07
      -89.533095   7.9180246e-07
      -89.481787   1.1801240e-06
      -89.430479   1.6704696e-06
      -89.379170   2.2618791e-06
      -89.327862   2.9532583e-06
      -89.276554   3.7432005e-06
      -89.225245   4.6300303e-06
      -89.173937   5.6118377e-06
      -89.122628   6.6865275e-06
      -89.071320   7.8516137e-06
      -89.020012   9.1045320e-06
      -88.968703   1.0442414e-05
      -88.917395   1.1862176e-05
      -88.866087   1.3360538e-05
      -88.814778   1.4933965e-05
      -88.763470   1.6578844e-05
      -88.712162   1.8291190e-05
      -88.660853   2.0067069e-05
      -88.609545   2.1902060e-05
      -88.558236   2.3791914e-05
      -88.506928   2.5731995e-05
      -88.455620   2.7717689e-05
      -88.404311   2.9744209e-05
      -88.353003   3.1806545e-05
      -88.301695   3.3899750e-05
      -88.250386   3.6018562e-05
      -88.199078   3.8158024e-05
      -88.147770   4.0312628e-05
      -88.096461   4.2477318e-05
      -88.045153   4.4646595e-05
      -87.993844   4.6815113e-05
      -87.942536   4.8977492e-05
      -87.891228   5.1128348e-05
      -87.839919   5.3262335e-05
      -87.788611   5.5374219e-05
      -87.737303   5.7458547e-05
      -87.685994   5.9510360e-05
      -87.634686   6.1524080e-05
      -87.583378   6.3494950e-05
      -87.532069   6.5417888e-05
      -87.480761   6.7288094e-05
      -87.429452   6.9100876e-05
      -87.378144   7.0851384e-05
      -87.326836   7.2535639e-05
      -87.275527   7.4148743e-05
      -87.224219   7.5686933e-05
      -87.172911   7.7146057e-05
      -87.121602   7.8522567e-05
      -87.070294   7.9812894e-05
      -87.018986   8.1013510e-05
      -86.967677   8.2121365e-05
      -86.916369   8.3133788e-05
      -86.865060   8.4047480e-05
      -86.813752   8.4860779e-05
      -86.762444   8.5571204e-05
      -86.711135   8.6176696e-05
      -86.659827   8.6675656e-05
      -86.608519   8.7066824e-05
      -86.557210   8.7349064e-05
      -86.505902   8.7521464e-05
      -86.454594   8.7583537e-05
      -86.403285   8.7534895e-05
      -86.351977   8.7375497e-05
      -86.300668   8.7105748e-05
      -86.249360   8.6726181e-05
      -86.198052   8.6237682e-05
      -86.146743   8.5641091e-05
      -86.095435   8.4938126e-05
      -86.044127   8.4130282e-05
      -85.992818   8.3219590e-05
      -85.941510   8.2208216e-05
      -85.890202   8.1098556e-05
      -85.838893   7.9893216e-05
      -85.787585   7.8595315e-05
      -85.736277   7.7208218e-05
      -85.684968   7.5735075e-05
      -85.633660   7.4179757e-05
      -85.582351   7.2546074e-05
      -85.531043   7.0838037e-05
      -85.479735   6.9060092e-05
      -85.428426   6.7216408e-05
      -85.377118   6.5312063e-05
      -85.325810   6.3351710e-05
      -85.274501   6.1340282e-05
      -85.223193   5.9283047e-05
      -85.171885   5.7184897e-05
      -85.120576   5.5051592e-05
      -85.069268   5.2888353e-05
      -85.017959   5.0700771e-05
      -84.966651   4.8494432e-05
      -84.915343   4.6275347e-05
      -84.864034   4.4048855e-05
      -84.812726   4.1820971e-05
      -84.761418   3.9597337e-05
      -84.710109   3.7383858e-05
      -84.658801   3.5186227e-05
      -84.607493   3.3010158e-05
      -84.556184   3.0861619e-05
      -84.504876   2.8745996e-05
      -84.453567   2.6669093e-05
      -84.402259   2.4636159e-05
      -84.350951   2.2652781e-05
      -84.299642   2.0724228e-05
      -84.248334   1.8855704e-05
      -84.197026   1.7052093e-05
      -84.145717   1.5318425e-05
      -84.094409   1.3659369e-05
      -84.043101   1.2079401e-05
      -83.991792   1.0582930e-05
      -83.940484   9.1741490e-06
      -83.889175   7.8568112e-06
      -83.837867   6.6348603e-06
      -83.786559   5.5115995e-06
      -83.735250   4.4903130e-06
      -83.683942   3.5740237e-06
      -83.632634   2.7654252e-06
      -83.581325   2.0669908e-06
      -83.530017   1.4808890e-06
      -83.478709   1.0090605e-06
      -83.427400   6.5312069e-07
      -83.376092   4.1439223e-07
      -83.324783   2.9394038e-07
      -83.273475   2.9248018e-07
      -83.222167   4.1048565e-07
      -83.170858   6.4808824e-07
      -83.119550   1.0051175e-06
      -83.068242   1.4811225e-06
      -83.016933   2.0753369e-06
      -82.965625   2.7867161e-06
      -82.914317   3.6138659e-06
      -82.863008   4.5551418e-06
      -82.811700   5.6085841e-06
      -82.760391   6.7719021e-06
      -82.709083   8.0427061e-06
      -82.657775   9.4180344e-06
      -82.606466   1.0894867e-05
      -82.555158   1.2469901e-05
      -82.503850   1.4139445e-05
      -82.452541   1.5899754e-05
      -82.401233   1.7746699e-05
      -82.349925   1.9675972e-05
      -82.298616   2.1682952e-05
      -82.247308   2.3763046e-05
      -82.195999   2.5911214e-05
      -82.144691   2.8122434e-05
      -82.093383   3.0391175e-05
      -82.042074   3.2712166e-05
      -81.990766   3.5079802e-05
      -81.939458   3.7488460e-05
      -81.888149   3.9931939e-05
      -81.836841   4.2404545e-05
      -81.785533   4.4900160e-05
      -81.734224   4.7412757e-05
      -81.682916   4.9936028e-05
      -81.631607   5.2463865e-05
      -81.580299   5.4989937e-05
      -81.528991   5.7508080e-05
      -81.477682   6.0011873e-05
      -81.426374   6.2495397e-05
      -81.375066   6.4952212e-05
      -81.323757   6.7376190e-05
      -81.272449   6.9761242e-05
      -81.221141   7.2101534e-05
      -81.169832   7.4390929e-05
      -81.118524   7.6623948e-05
      -81.067215   7.8794864e-05
      -81.015907   8.0897945e-05
      -80.964599   8.2928101e-05
      -80.913290   8.4879994e-05
      -80.861982   8.6748808e-05
      -80.810674   8.8529444e-05
      -80.759365   9.0217763e-05
      -80.708057   9.1808954e-05
      -80.656749   9.3299276e-05
      -80.605440   9.4684738e-05
      -80.554132   9.5961543e-05
      -80.502823   9.7126529e-05
      -80.451515   9.8176337e-05
      -80.400207   9.9108848e-05
      -80.348898   9.9920830e-05
      -80.297590   0.00010061034
      -80.246282   0.00010117582
      -80.194973   0.00010161509
      -80.143665   0.00010192713
      -80.092357   0.00010211108
      -80.041048   0.00010216628
      -79.989740   0.00010209246
      -79.938431   0.00010188937
      -79.887123   0.00010155775
      -79.835815   0.00010109799
      -79.784506   0.00010051114
      -79.733198   9.9798652e-05
      -79.681890   9.8962301e-05
      -79.630581   9.8003747e-05
      -79.579273   9.6925408e-05
      -79.527965   9.5729766e-05
      -79.476656   9.4419864e-05
      -79.425348   9.2998894e-05
      -79.374039   9.1470395e-05
      -79.322731   8.9837943e-05
      -79.271423   8.8105649e-05
      -79.220114   8.6277997e-05
      -79.168806   8.4359213e-05
      -79.117498   8.2354578e-05
      -79.066189   8.0268626e-05
      -79.014881   7.8106847e-05
      -78.963573   7.5874918e-05
      -78.912264   7.3578171e-05
      -78.860956   7.1222490e-05
      -78.809647   6.8813873e-05
      -78.758339   6.6358400e-05
      -78.707031   6.3862562e-05
      -78.655722   6.1332737e-05
      -78.604414   5.8775279e-05
      -78.553106   5.6196739e-05
      -78.501797   5.3604065e-05
      -78.450489   5.1003688e-05
      -78.399181   4.8402581e-05
      -78.347872   4.5807292e-05
      -78.296564   4.3224736e-05
      -78.245255   4.0661676e-05
      -78.193947   3.8124684e-05
      -78.142639   3.5620761e-05
      -78.091330   3.3156164e-05
      -78.040022   3.0737763e-05
      -77.988714   2.8371689e-05
      -77.937405   2.6064540e-05
      -77.886097   2.3822278e-05
      -77.834789   2.1651026e-05
      -77.783480   1.9556670e-05
      -77.732172   1.7544985e-05
      -77.680863   1.5621280e-05
      -77.629555   1.3790987e-05
      -77.578247   1.2059220e-05
      -77.526938   1.0430729e-05
      -77.475630   8.9101266e-06
      -77.424322   7.5016953e-06
      -77.373013   6.2095602e-06
      -77.321705   5.0374143e-06
      -77.270397   3.9888336e-06
      -77.219088   3.0669409e-06
      -77.167780   2.2745626e-06
      -77.116471   1.6143086e-06
      -77.065163   1.0883399e-06
      -77.013855   6.9855027e-07
      -76.962546   4.4647793e-07
      -76.911238   3.3332844e-07
      -76.859930   3.5992746e-07
      -76.808621   5.2678703e-07
      -76.757313   8.3404359e-07
      -76.706005   1.2814889e-06
      -76.654696   1.8685212e-06
      -76.603388   2.5942708e-06
      -76.552079   3.4573906e-06
      -76.500771   4.4563192e-06
      -76.449463   5.5890061e-06
      -76.398154   6.8532221e-06
      -76.346846   8.2461801e-06
      -76.295538   9.7650276e-06
      -76.244229   1.1406325e-05
      -76.192921   1.3166497e-05
      -76.141613   1.5041631e-05
      -76.090304   1.7027345e-05
      -76.038996   1.9119204e-05
      -75.987687   2.1312380e-05
      -75.936379   2.3601724e-05
      -75.885071   2.5981842e-05
      -75.833762   2.8447270e-05
      -75.782454   3.0992145e-05
      -75.731146   3.3610278e-05
      -75.679837   3.6295619e-05
      -75.628529   3.9041704e-05
      -75.577221   4.1841748e-05
      -75.525912   4.4689280e-05
      -75.474604   4.7577181e-05
      -75.423295   5.0498549e-05
      -75.371987   5.3446137e-05
      -75.320679   5.6412916e-05
      -75.269370   5.9391434e-05
      -75.218062   6.2374608e-05
      -75.166754   6.5354748e-05
      -75.115445   6.8324945e-05
      -75.064137   7.1277241e-05
      -75.012829   7.4204861e-05
      -74.961520   7.7100275e-05
      -74.910212   7.9956225e-05
      -74.858903   8.2765519e-05
      -74.807595   8.5521290e-05
      -74.756287   8.8216355e-05
      -74.704978   9.0844192e-05
      -74.653670   9.3398072e-05
      -74.602362   9.5871375e-05
      -74.551053   9.8257998e-05
      -74.499745   0.00010055175
      -74.448437   0.00010274651
      -74.397128   0.00010483741
      -74.345820   0.00010681834
      -74.294511   0.00010868454
      -74.243203   0.00011043075
      -74.191895   0.00011205305
      -74.140586   0.00011354667
      -74.089278   0.00011490785
      -74.037970   0.00011613300
      -73.986661   0.00011721870
      -73.935353   0.00011816245
      -73.884045   0.00011896128
      -73.832736   0.00011961324
      -73.781428   0.00012011595
      -73.730119   0.00012046848
      -73.678811   0.00012066959
      -73.627503   0.00012071817
      -73.576194   0.00012061462
      -73.524886   0.00012035851
      -73.473578   0.00011995029
      -73.422269   0.00011939095
      -73.370961   0.00011868155
      -73.319653   0.00011782382
      -73.268344   0.00011681971
      -73.217036   0.00011567145
      -73.165728   0.00011438183
      -73.114419   0.00011295403
      -73.063111   0.00011139140
      -73.011802   0.00010969782
      -72.960494   0.00010787738
      -72.909186   0.00010593455
      -72.857877   0.00010387414
      -72.806569   0.00010170146
      -72.755261   9.9421542e-05
      -72.703952   9.7040332e-05
      -72.652644   9.4563732e-05
      -72.601336   9.1998134e-05
      -72.550027   8.9349700e-05
      -72.498719   8.6625466e-05
      -72.447410   8.3832354e-05
      -72.396102   8.0977080e-05
      -72.344794   7.8067238e-05
      -72.293485   7.5110359e-05
      -72.242177   7.2113834e-05
      -72.190869   6.9085478e-05
      -72.139560   6.6033070e-05
      -72.088252   6.2964493e-05
      -72.036944   5.9887803e-05
      -71.985635   5.6810880e-05
      -71.934327   5.3741937e-05
      -71.883018   5.0688804e-05
      -71.831710   4.7659530e-05
      -71.780402   4.4662359e-05
      -71.729093   4.1704765e-05
      -71.677785   3.8795020e-05
      -71.626477   3.5940704e-05
      -71.575168   3.3149324e-05
      -71.523860   3.0428546e-05
      -71.472552   2.7785698e-05
      -71.421243   2.5227851e-05
      -71.369935   2.2762039e-05
      -71.318626   2.0394912e-05
      -71.267318   1.8133078e-05
      -71.216010   1.5982911e-05
      -71.164701   1.3950311e-05
      -71.113393   1.2040931e-05
      -71.062085   1.0260335e-05
      -71.010776   8.6136206e-06
      -70.959468   7.1055391e-06
      -70.908160   5.7406167e-06
      -70.856851   4.5229461e-06
      -70.805543   3.4562887e-06
      -70.754234   2.5440083e-06
      -70.702926   1.7891478e-06
      -70.651618   1.1942799e-06
      -70.600309   7.6164827e-07
      -70.549001   4.9303554e-07
      -70.497693   3.8987114e-07
      -70.446384   4.5312905e-07
      -70.395076   6.8339895e-07
      -70.343768   1.0808012e-06
      -70.292459   1.6450913e-06
      -70.241151   2.3755169e-06
      -70.189842   3.2710558e-06
      -70.138534   4.3300760e-06
      -70.087226   5.5506391e-06
      -70.035917   6.9304027e-06
      -69.984609   8.4665536e-06
      -69.933301   1.0155899e-05
      -69.881992   1.1994903e-05
      -69.830684   1.3979523e-05
      -69.779376   1.6105473e-05
      -69.728067   1.8367972e-05
      -69.676759   2.0762030e-05
      -69.625450   2.3282111e-05
      -69.574142   2.5922338e-05
      -69.522834   2.8676928e-05
      -69.471525   3.1539307e-05
      -69.420217   3.4502857e-05
      -69.368909   3.7560526e-05
      -69.317600   4.0705067e-05
      -69.266292   4.3929225e-05
      -69.214984   4.7225070e-05
      -69.163675   5.0584991e-05
      -69.112367   5.4000666e-05
